label,input
right,"[495, 493, 493, 493, 493, 492, 494, 492, 494, 494, 494, 494, 493, 493, 492, 493, 493, 493, 494, 493, 493, 492, 492, 493, 493, 491, 493, 494, 494, 492, 494, 493, 492, 493, 493, 492, 492, 494, 492, 493, 491, 492, 493, 493, 493, 493, 492, 494, 492, 493, 495, 490, 492, 493, 492, 494, 492, 493, 493, 493, 493, 493, 493, 492, 494, 493, 494, 490, 492, 493, 494, 492, 493, 493, 493, 494, 493, 494, 492, 493, 493, 493, 493, 493, 493, 493, 493, 491, 492, 493, 494, 492, 493, 492, 493, 493, 493, 493, 493, 492, 492, 493, 493, 492, 493, 493, 493, 494, 492, 492, 493, 492, 492, 494, 495, 493, 491, 493, 493, 493, 495, 494, 493, 493, 493, 493, 494, 493, 492, 495, 495, 498, 492, 501, 495, 492, 493, 493, 501, 486, 493, 495, 494, 488, 490, 502, 497, 500, 501, 485, 499, 500, 510, 492, 487, 497, 503, 497, 481, 500, 490, 501, 501, 486, 494, 509, 477, 515, 494, 502, 481, 506, 477, 500, 531, 498, 475, 519, 491, 490, 477, 497, 517, 509, 484, 486, 486, 521, 516, 516, 437, 526, 471, 514, 526, 482, 484, 514, 455, 505, 494, 478, 508, 492, 513, 448, 487, 536, 447, 491, 493, 502, 448, 474, 499, 508, 510, 467, 492, 495, 515, 513, 492, 468, 511, 461, 505, 483, 441, 502, 527, 438, 498, 510, 457, 498, 513, 493, 473, 501, 484, 480, 482, 446, 499, 489, 571, 445, 567, 460, 513, 473, 474, 476, 466, 484, 500, 502, 491, 471, 423, 479, 478, 560, 517, 469, 491, 484, 489, 491, 495, 495, 471, 496, 485, 467, 467, 493, 473, 508, 472, 528, 485, 490, 449, 477, 481, 468, 514, 490, 483, 508, 490, 488, 495, 479, 470, 517, 490, 470, 461, 508, 522, 481, 489, 480, 483, 481, 493, 480, 492, 491, 489, 512, 455, 498, 485, 505, 523, 489, 489, 484, 493, 474, 504, 482, 537, 465, 485, 508, 497, 500, 497, 487, 478, 490, 485, 478, 485, 527, 450, 480, 490, 494, 477, 493, 496, 502, 500, 506, 506, 488, 488, 516, 487, 517, 498, 462, 494, 522, 482, 566, 483, 472, 487, 534, 479, 476, 487, 467, 551, 480, 482, 508, 505, 477, 490, 485, 497, 489, 488, 501, 496, 489, 477, 519, 495, 502, 491, 503, 503, 485, 491, 499, 495, 485, 520, 492, 503, 491, 484, 458, 487, 503, 485, 487, 488, 513, 527, 482, 513, 487, 491, 493, 493, 490, 497, 483, 504, 499, 505, 486, 495, 493, 492, 508, 487, 478, 501, 498, 484, 517, 503, 497, 488, 490, 503, 517, 513, 490, 518, 469, 502, 489, 494, 498, 510, 455, 496, 508, 481, 492, 490, 502, 500, 494, 498, 534, 498, 500, 498, 496, 503, 487, 512, 493, 473, 502, 491, 493, 525, 485, 486, 511, 511, 488, 501, 510, 488, 507, 496, 509, 487, 497, 496, 496, 516, 514, 500, 495, 480, 491, 485, 506, 481, 489, 491, 509, 490, 493, 506, 493, 531, 491, 490, 489, 489, 500, 499, 498, 481, 482, 492, 498, 481, 515, 488, 482, 515, 517, 480, 499, 480, 515, 490, 489, 481, 479, 503, 484, 494, 495, 493, 504, 481, 489, 499, 480, 492, 501, 470, 487, 490, 508, 499, 504, 496, 494, 492, 504, 499, 487, 488, 492, 504, 500, 496, 483, 504, 486, 493, 499, 491, 491, 493, 503, 502, 486, 482, 517, 482, 508, 493, 487, 514, 482]"
rest,"[517, 487, 489, 486, 495, 529, 476, 483, 521, 490, 492, 502, 496, 517, 493, 489, 494, 482, 488, 493, 488, 493, 497, 497, 485, 488, 519, 485, 500, 506, 483, 493, 509, 489, 490, 496, 496, 495, 491, 499, 493, 518, 483, 504, 495, 478, 496, 500, 496, 499, 498, 500, 478, 495, 503, 492, 498, 496, 485, 477, 475, 488, 481, 489, 505, 504, 496, 503, 491, 496, 516, 493, 504, 482, 496, 489, 488, 491, 503, 534, 471, 488, 492, 494, 485, 510, 488, 503, 490, 491, 504, 479, 496, 489, 491, 499, 487, 491, 492, 494, 493, 493, 492, 494, 493, 495, 493, 493, 495, 494, 495, 494, 494, 494, 495, 494, 495, 494, 495, 495, 495, 495, 495, 494, 495, 496, 495, 496, 496, 496, 495, 497, 496, 498, 496, 496, 496, 496, 496, 497, 496, 496, 497, 497, 496, 496, 496, 496, 497, 497, 497, 496, 496, 496, 497, 497, 496, 497, 497, 496, 496, 497, 496, 498, 496, 496, 497, 497, 497, 496, 497, 497, 496, 496, 496, 496, 497, 496, 497, 496, 497, 497, 498, 496, 496, 496, 496, 497, 497, 497, 496, 497, 495, 496, 496, 496, 496, 496, 496, 496, 496, 496, 496, 496, 496, 496, 497, 496, 496, 495, 496, 496, 495, 496, 495, 496, 496, 496, 495, 497, 496, 495, 495, 495, 496, 496, 496, 494, 495, 496, 494, 496, 495, 495, 495, 495, 495, 495, 494, 495, 495, 495, 495, 494, 494, 495, 496, 495, 494, 494, 494, 493, 495, 495, 495, 495, 494, 495, 495, 495, 494, 494, 494, 494, 494, 494, 493, 494, 493, 495, 493, 494, 495, 495, 494, 493, 494, 494, 494, 494, 494, 493, 494, 494, 493, 493, 493, 494, 493, 493, 493, 494, 494, 494, 493, 494, 493, 494, 494, 493, 493, 493, 493, 494, 494, 493, 494, 494, 494, 493, 494, 494, 494, 493, 493, 493, 493, 493, 493, 493, 493, 493, 493, 494, 493, 493, 494, 494, 493, 493, 493, 493, 493, 493, 493, 493, 493, 492, 494, 492, 493, 493, 493, 493, 493, 494, 493, 493, 493, 492, 493, 493, 493, 492, 493, 493, 493, 493, 492, 492, 493, 493, 492, 492, 494, 493, 493, 492, 493, 492, 493, 492, 493, 492, 493, 493, 492, 492, 492, 492, 493, 493, 492, 492, 492, 492, 492, 493, 492, 493, 492, 493, 492, 493, 492, 492, 492, 492, 493, 492, 492, 492, 492, 492, 492, 492, 492, 492, 493, 492, 492, 492, 492, 492, 492, 493, 491, 492, 493, 491, 491, 492, 493, 492, 492, 492, 492, 493, 492, 492, 492, 493, 493, 492, 492, 492, 492, 492, 493, 491, 492, 492, 491, 493, 492, 491, 492, 493, 491, 493, 492, 492, 493, 492, 492, 492, 493, 492, 491, 491, 492, 491, 492, 492, 493, 492, 492, 492, 492, 493, 492, 492, 493, 492, 491, 493, 492, 493, 492, 492, 493, 492, 491, 492, 492, 492, 492, 492, 493, 492, 493, 492, 492, 493, 493, 492, 491, 491, 493, 491, 492, 491, 492, 491, 492, 492, 492, 491, 492, 492, 492, 493, 492, 493, 491, 493, 491, 492, 492, 492, 494, 492, 492, 492, 493, 491, 494, 492, 493, 492, 492, 492, 492, 493, 492, 491, 492, 492, 492, 493, 492, 493, 492, 493, 492, 492, 493, 492, 493, 492, 492, 492, 492, 492, 492, 493, 492, 492, 493, 493, 492, 492, 493, 492, 492, 492, 492, 494, 493, 492, 492, 493, 492, 493, 492, 493, 492]"
right,"[492, 492, 493, 492, 491, 492, 492, 491, 493, 492, 493, 493, 492, 493, 493, 493, 492, 492, 491, 493, 493, 492, 492, 492, 493, 492, 493, 492, 492, 493, 492, 492, 492, 492, 493, 492, 492, 492, 492, 491, 492, 492, 492, 493, 492, 492, 492, 492, 493, 492, 492, 492, 492, 492, 493, 492, 492, 491, 492, 492, 492, 492, 492, 492, 492, 492, 492, 492, 492, 492, 492, 491, 493, 493, 492, 493, 491, 493, 492, 492, 491, 492, 493, 492, 492, 492, 491, 492, 492, 492, 492, 492, 492, 492, 492, 491, 491, 492, 493, 491, 491, 493, 493, 492, 491, 492, 492, 493, 492, 492, 492, 491, 492, 492, 492, 491, 492, 492, 492, 492, 492, 493, 494, 490, 494, 493, 491, 492, 491, 492, 495, 493, 500, 489, 491, 494, 494, 494, 491, 488, 489, 494, 492, 488, 492, 494, 492, 493, 489, 491, 492, 498, 495, 490, 496, 495, 495, 488, 508, 483, 499, 492, 489, 489, 495, 489, 498, 490, 493, 489, 516, 493, 493, 503, 476, 515, 475, 492, 487, 487, 503, 485, 487, 488, 506, 478, 499, 487, 491, 500, 489, 515, 469, 487, 490, 515, 518, 465, 486, 487, 487, 506, 480, 485, 502, 486, 500, 523, 485, 477, 493, 492, 476, 481, 506, 493, 482, 537, 470, 486, 511, 487, 500, 523, 465, 513, 468, 480, 501, 485, 532, 462, 489, 487, 491, 514, 447, 506, 481, 506, 495, 450, 486, 484, 504, 470, 489, 496, 506, 470, 464, 517, 474, 507, 483, 520, 473, 490, 492, 497, 508, 505, 499, 466, 515, 490, 510, 471, 489, 478, 547, 504, 489, 487, 462, 487, 556, 481, 471, 556, 424, 522, 462, 485, 480, 474, 493, 485, 468, 486, 462, 491, 496, 499, 472, 503, 470, 490, 487, 499, 480, 489, 502, 428, 469, 503, 482, 493, 461, 496, 505, 482, 484, 485, 478, 506, 453, 474, 511, 486, 508, 467, 481, 517, 434, 494, 478, 495, 480, 480, 515, 474, 461, 493, 482, 482, 487, 477, 525, 486, 494, 500, 479, 497, 490, 478, 500, 460, 496, 460, 494, 475, 489, 504, 486, 490, 508, 490, 503, 511, 474, 494, 505, 502, 502, 531, 486, 493, 456, 494, 494, 493, 488, 485, 491, 494, 490, 509, 498, 496, 497, 482, 504, 514, 486, 490, 488, 490, 504, 500, 491, 486, 489, 486, 477, 486, 491, 494, 490, 491, 513, 509, 483, 484, 498, 495, 497, 485, 496, 503, 489, 488, 498, 504, 517, 480, 487, 515, 492, 487, 499, 493, 488, 499, 496, 473, 491, 509, 512, 491, 503, 509, 495, 503, 498, 518, 514, 479, 495, 500, 492, 523, 491, 480, 495, 513, 482, 511, 501, 496, 482, 521, 470, 493, 523, 479, 501, 498, 495, 490, 493, 493, 497, 498, 489, 487, 496, 493, 499, 483, 517, 483, 506, 536, 484, 496, 492, 504, 520, 480, 485, 494, 488, 532, 486, 499, 527, 480, 487, 498, 496, 480, 488, 488, 494, 507, 484, 496, 505, 509, 493, 486, 493, 494, 495, 485, 489, 492, 500, 511, 497, 493, 459, 483, 506, 490, 489, 493, 494, 493, 502, 505, 472, 493, 490, 493, 501, 489, 499, 513, 477, 484, 507, 484, 489, 490, 506, 496, 498, 489, 488, 479, 488, 485, 505, 482, 488, 490, 501, 476, 498, 487, 493, 488, 493, 493, 501, 499, 494, 543, 488, 486, 488, 513, 471, 489, 498, 489, 527, 477, 488, 521, 482, 487, 488, 490, 522]"
rest,"[502, 492, 490, 495, 489, 497, 497, 493, 481, 486, 505, 490, 480, 501, 493, 504, 491, 490, 500, 495, 479, 489, 507, 481, 495, 484, 507, 501, 512, 488, 489, 491, 519, 491, 483, 497, 476, 497, 517, 485, 495, 495, 495, 532, 485, 514, 484, 490, 486, 496, 493, 504, 478, 510, 491, 494, 487, 517, 500, 485, 496, 492, 482, 496, 516, 482, 505, 481, 511, 494, 485, 493, 492, 494, 504, 513, 478, 491, 499, 486, 516, 478, 485, 516, 480, 490, 509, 492, 491, 491, 493, 511, 508, 492, 483, 529, 478, 487, 489, 499, 491, 490, 489, 505, 485, 495, 492, 493, 504, 492, 490, 495, 506, 501, 490, 503, 502, 492, 488, 491, 496, 492, 493, 492, 494, 502, 495, 495, 492, 493, 493, 494, 496, 496, 494, 494, 493, 494, 495, 499, 494, 495, 495, 496, 496, 495, 495, 495, 496, 495, 496, 495, 496, 495, 495, 495, 496, 497, 496, 496, 496, 496, 496, 496, 496, 496, 496, 497, 496, 497, 496, 497, 497, 496, 496, 496, 497, 496, 496, 496, 497, 496, 497, 496, 497, 496, 497, 496, 496, 496, 496, 496, 496, 497, 496, 495, 496, 496, 495, 496, 496, 497, 496, 496, 496, 496, 496, 495, 495, 496, 496, 495, 496, 495, 496, 496, 496, 495, 495, 495, 496, 495, 496, 495, 495, 496, 495, 495, 495, 495, 495, 495, 495, 495, 495, 496, 495, 495, 495, 495, 495, 495, 495, 494, 496, 495, 495, 495, 495, 495, 495, 494, 494, 494, 494, 495, 494, 495, 495, 494, 495, 494, 493, 495, 494, 494, 494, 494, 495, 494, 494, 494, 494, 494, 494, 494, 494, 494, 494, 494, 495, 493, 494, 494, 494, 493, 494, 495, 494, 494, 493, 494, 494, 494, 493, 494, 493, 494, 494, 494, 494, 493, 494, 493, 494, 493, 494, 493, 494, 493, 494, 494, 494, 493, 494, 493, 494, 493, 494, 494, 493, 494, 493, 494, 493, 494, 494, 494, 493, 493, 493, 493, 493, 493, 493, 493, 494, 493, 493, 493, 493, 493, 493, 493, 493, 494, 493, 493, 492, 493, 493, 493, 493, 493, 493, 493, 493, 493, 492, 493, 493, 492, 493, 492, 492, 493, 494, 492, 493, 493, 493, 492, 493, 492, 493, 493, 493, 492, 493, 494, 492, 493, 492, 493, 493, 493, 492, 492, 492, 493, 492, 493, 492, 493, 493, 492, 492, 492, 493, 492, 494, 492, 493, 492, 493, 492, 493, 492, 492, 493, 492, 492, 492, 493, 492, 492, 492, 492, 492, 492, 493, 491, 492, 493, 493, 492, 492, 492, 493, 492, 492, 491, 493, 493, 493, 492, 492, 493, 492, 492, 492, 492, 492, 493, 492, 492, 492, 493, 492, 493, 491, 492, 492, 492, 492, 492, 492, 492, 492, 492, 492, 492, 493, 492, 493, 492, 492, 493, 492, 491, 492, 493, 492, 492, 492, 492, 492, 492, 492, 492, 492, 492, 492, 492, 493, 492, 492, 492, 492, 491, 493, 492, 492, 492, 492, 492, 492, 492, 492, 491, 492, 491, 492, 492, 492, 491, 493, 493, 492, 492, 493, 492, 492, 492, 493, 492, 492, 492, 492, 492, 493, 492, 493, 492, 492, 492, 492, 492, 492, 493, 492, 492, 492, 492, 492, 492, 492, 492, 492, 493, 492, 493, 492, 492, 492, 492, 492, 492, 493, 492, 492, 492, 492, 493, 492, 492, 493, 491, 492, 492, 492, 492, 492, 492, 492, 492, 492, 492, 492, 492, 492, 492, 492, 493, 491, 492, 492]"
right,"[492, 492, 492, 492, 492, 492, 492, 493, 492, 492, 492, 492, 492, 493, 492, 492, 492, 492, 492, 492, 492, 492, 492, 492, 493, 492, 493, 492, 492, 493, 492, 492, 492, 492, 492, 492, 493, 492, 492, 492, 492, 492, 492, 492, 492, 492, 492, 492, 492, 492, 492, 491, 492, 493, 492, 492, 493, 492, 493, 492, 493, 492, 492, 493, 492, 492, 492, 493, 492, 492, 492, 493, 491, 493, 492, 492, 492, 492, 492, 492, 492, 492, 493, 493, 492, 492, 492, 492, 493, 492, 493, 492, 492, 492, 492, 492, 492, 493, 492, 493, 492, 492, 492, 492, 492, 492, 492, 493, 493, 492, 492, 492, 492, 493, 493, 494, 490, 493, 493, 492, 492, 494, 491, 492, 492, 493, 493, 490, 495, 496, 494, 492, 495, 494, 494, 492, 492, 496, 497, 491, 492, 493, 495, 495, 488, 494, 495, 493, 496, 489, 495, 492, 496, 492, 498, 500, 485, 491, 490, 489, 489, 492, 492, 489, 500, 496, 491, 498, 487, 496, 501, 500, 499, 502, 496, 482, 497, 491, 492, 492, 506, 496, 486, 484, 494, 490, 492, 496, 492, 513, 492, 479, 488, 498, 498, 479, 516, 477, 499, 507, 507, 474, 494, 510, 471, 499, 498, 480, 527, 477, 497, 492, 463, 490, 494, 530, 508, 492, 492, 487, 559, 436, 476, 488, 472, 496, 491, 501, 481, 501, 495, 481, 530, 494, 482, 500, 476, 483, 497, 521, 472, 496, 528, 456, 522, 473, 532, 483, 476, 493, 516, 484, 497, 475, 476, 485, 483, 535, 495, 468, 497, 472, 502, 492, 490, 515, 494, 471, 536, 466, 481, 468, 493, 548, 469, 526, 484, 480, 528, 477, 487, 489, 542, 428, 474, 476, 505, 492, 494, 480, 530, 461, 502, 473, 497, 501, 478, 541, 433, 474, 500, 477, 479, 534, 455, 483, 469, 483, 486, 512, 488, 496, 513, 473, 485, 482, 489, 493, 472, 487, 496, 498, 483, 549, 474, 483, 513, 507, 485, 497, 510, 461, 486, 490, 521, 492, 489, 489, 489, 494, 488, 511, 576, 470, 482, 513, 499, 491, 480, 488, 511, 503, 462, 493, 491, 517, 483, 483, 490, 523, 481, 487, 506, 495, 511, 478, 492, 501, 491, 489, 495, 477, 497, 503, 487, 508, 496, 477, 490, 528, 468, 485, 489, 484, 492, 509, 504, 491, 505, 492, 539, 441, 485, 486, 505, 496, 487, 496, 493, 489, 504, 504, 484, 480, 488, 500, 490, 503, 477, 496, 495, 496, 495, 512, 494, 518, 483, 503, 524, 484, 491, 497, 507, 484, 491, 493, 495, 497, 498, 480, 487, 505, 492, 489, 502, 488, 499, 510, 489, 512, 488, 477, 503, 519, 487, 488, 500, 503, 523, 493, 486, 509, 496, 491, 489, 494, 503, 484, 517, 512, 499, 484, 484, 483, 505, 461, 486, 512, 496, 494, 490, 499, 486, 495, 522, 491, 487, 489, 492, 509, 493, 490, 499, 503, 512, 484, 490, 492, 496, 497, 489, 492, 519, 483, 496, 495, 491, 508, 489, 486, 497, 479, 496, 488, 497, 485, 492, 500, 487, 495, 499, 490, 488, 523, 469, 491, 504, 489, 493, 503, 487, 491, 495, 466, 487, 491, 494, 505, 488, 519, 485, 500, 495, 482, 488, 501, 488, 491, 504, 493, 488, 497, 489, 490, 509, 494, 489, 490, 502, 496, 505, 487, 512, 495, 492, 485, 496, 485, 497, 503, 497, 504, 492, 493, 496, 504, 501, 489, 496, 506, 483, 489, 492, 489, 490, 497, 484]"
rest,"[500, 490, 499, 493, 490, 485, 482, 489, 511, 486, 489, 492, 512, 490, 493, 491, 497, 496, 492, 485, 479, 490, 482, 498, 496, 489, 495, 487, 497, 497, 492, 485, 500, 491, 479, 497, 497, 483, 495, 490, 492, 507, 486, 498, 497, 502, 502, 493, 488, 492, 505, 487, 501, 496, 497, 495, 502, 490, 493, 485, 489, 495, 491, 493, 496, 494, 494, 527, 474, 485, 507, 493, 490, 492, 490, 490, 509, 484, 492, 515, 490, 488, 501, 489, 490, 501, 487, 499, 498, 479, 494, 496, 498, 492, 505, 491, 490, 491, 500, 497, 507, 492, 496, 487, 501, 492, 494, 501, 486, 495, 492, 507, 477, 489, 494, 492, 494, 497, 495, 493, 493, 492, 497, 498, 493, 489, 491, 494, 496, 495, 496, 510, 486, 490, 491, 490, 493, 493, 493, 506, 483, 493, 488, 504, 490, 490, 491, 492, 493, 494, 491, 496, 494, 493, 488, 492, 492, 493, 493, 495, 493, 493, 495, 494, 494, 494, 494, 494, 494, 495, 495, 494, 495, 494, 495, 495, 493, 495, 493, 495, 494, 495, 495, 496, 494, 496, 496, 495, 493, 495, 494, 496, 496, 495, 494, 495, 496, 496, 496, 494, 494, 495, 495, 495, 495, 495, 495, 496, 495, 494, 494, 495, 495, 495, 495, 495, 495, 495, 495, 494, 494, 495, 494, 494, 494, 495, 495, 494, 494, 494, 495, 495, 494, 493, 494, 495, 494, 494, 494, 494, 494, 495, 493, 493, 494, 494, 494, 495, 493, 494, 494, 494, 493, 494, 494, 494, 493, 494, 494, 495, 494, 493, 494, 495, 495, 493, 494, 493, 494, 493, 494, 493, 493, 494, 493, 494, 493, 493, 493, 494, 493, 494, 493, 494, 493, 493, 493, 493, 493, 492, 494, 493, 493, 493, 494, 493, 493, 493, 494, 493, 492, 493, 493, 493, 493, 493, 492, 493, 492, 493, 492, 493, 493, 493, 493, 493, 492, 493, 493, 492, 493, 492, 492, 493, 493, 492, 493, 492, 492, 492, 493, 494, 493, 493, 492, 490, 492, 492, 492, 493, 491, 491, 491, 492, 491, 492, 492, 492, 493, 492, 492, 492, 493, 492, 492, 492, 493, 492, 493, 492, 492, 492, 492, 492, 492, 494, 492, 493, 493, 493, 492, 493, 492, 493, 492, 493, 492, 492, 492, 493, 493, 493, 492, 492, 493, 492, 493, 492, 493, 493, 493, 493, 493, 493, 493, 493, 492, 493, 492, 493, 493, 492, 493, 492, 493, 493, 494, 491, 493, 492, 493, 493, 492, 493, 493, 492, 493, 492, 493, 492, 492, 492, 492, 493, 492, 493, 492, 492, 493, 493, 492, 492, 494, 493, 492, 492, 492, 492, 492, 493, 492, 492, 494, 492, 493, 492, 493, 493, 492, 492, 493, 492, 493, 493, 492, 492, 492, 493, 492, 492, 493, 492, 492, 493, 492, 493, 493, 493, 492, 492, 492, 493, 492, 492, 492, 492, 492, 492, 493, 492, 493, 493, 492, 492, 491, 492, 494, 493, 492, 492, 492, 493, 492, 493, 492, 492, 492, 492, 492, 493, 493, 492, 493, 492, 492, 493, 492, 492, 492, 492, 492, 492, 493, 492, 492, 492, 492, 491, 492, 492, 492, 493, 492, 492, 492, 493, 492, 492, 492, 492, 492, 492, 493, 491, 494, 491, 492, 491, 493, 493, 492, 492, 492, 493, 493, 491, 493, 493, 494, 493, 492, 493, 491, 494, 492, 493, 492, 493, 493, 492, 493, 493, 492, 492, 493, 493, 492, 493, 490, 494, 494, 490, 492, 493, 492, 492, 492]"
right,"[493, 492, 493, 492, 492, 490, 496, 492, 492, 492, 493, 492, 495, 492, 489, 493, 492, 492, 492, 493, 492, 493, 492, 492, 492, 493, 492, 493, 492, 492, 492, 493, 493, 491, 494, 492, 493, 492, 493, 492, 493, 492, 493, 493, 491, 492, 492, 492, 492, 493, 492, 493, 494, 492, 490, 492, 492, 492, 492, 492, 493, 492, 492, 492, 494, 489, 492, 492, 492, 492, 493, 492, 492, 493, 492, 492, 492, 493, 492, 492, 493, 493, 492, 493, 492, 494, 491, 492, 493, 493, 491, 492, 493, 493, 492, 493, 492, 492, 492, 492, 492, 492, 492, 492, 492, 492, 492, 493, 492, 492, 492, 492, 493, 493, 492, 492, 492, 492, 492, 491, 492, 494, 493, 494, 492, 491, 493, 493, 491, 492, 493, 492, 493, 493, 491, 494, 498, 492, 498, 493, 498, 491, 497, 494, 501, 484, 494, 493, 499, 488, 491, 494, 492, 489, 495, 496, 496, 495, 485, 489, 492, 493, 496, 484, 501, 490, 485, 498, 493, 493, 493, 480, 516, 482, 523, 473, 494, 494, 481, 494, 490, 535, 493, 492, 496, 475, 513, 494, 489, 494, 488, 506, 495, 476, 494, 508, 492, 510, 500, 481, 486, 502, 490, 486, 491, 503, 507, 472, 484, 485, 525, 472, 495, 529, 501, 487, 502, 513, 472, 515, 449, 482, 487, 492, 473, 490, 494, 504, 504, 475, 503, 457, 478, 487, 509, 491, 472, 514, 480, 529, 477, 504, 479, 488, 486, 495, 495, 489, 534, 503, 481, 526, 433, 488, 480, 488, 518, 481, 509, 483, 507, 479, 507, 467, 501, 490, 493, 489, 490, 469, 496, 482, 494, 487, 485, 490, 487, 489, 523, 478, 477, 529, 480, 483, 471, 485, 493, 471, 488, 477, 490, 496, 484, 486, 489, 480, 478, 489, 514, 495, 486, 494, 475, 494, 493, 489, 492, 491, 482, 494, 493, 487, 490, 479, 510, 487, 486, 487, 488, 501, 495, 493, 490, 476, 488, 509, 470, 496, 479, 496, 491, 492, 477, 495, 514, 467, 488, 495, 485, 516, 483, 486, 494, 505, 486, 483, 510, 485, 497, 485, 486, 508, 486, 486, 492, 503, 497, 494, 489, 502, 505, 485, 498, 494, 491, 506, 481, 491, 505, 495, 493, 498, 472, 494, 485, 488, 496, 491, 495, 488, 509, 496, 489, 488, 496, 484, 498, 493, 497, 491, 491, 471, 496, 488, 492, 488, 507, 488, 490, 505, 492, 496, 483, 483, 490, 493, 481, 494, 500, 486, 493, 498, 492, 502, 475, 493, 493, 498, 495, 485, 483, 489, 502, 495, 490, 491, 518, 501, 483, 495, 489, 497, 482, 491, 495, 497, 499, 492, 501, 491, 497, 493, 496, 498, 496, 488, 497, 489, 490, 492, 493, 502, 489, 490, 492, 503, 506, 487, 497, 499, 502, 483, 488, 502, 485, 494, 498, 493, 503, 493, 507, 484, 491, 492, 503, 493, 502, 491, 504, 511, 484, 491, 503, 486, 492, 494, 494, 499, 497, 492, 486, 496, 489, 486, 479, 498, 498, 488, 489, 492, 495, 503, 482, 496, 493, 503, 484, 489, 509, 493, 493, 491, 501, 484, 494, 495, 498, 496, 495, 488, 491, 495, 498, 483, 491, 491, 506, 489, 506, 481, 485, 490, 505, 494, 487, 497, 499, 500, 487, 492, 500, 495, 491, 491, 493, 493, 497, 492, 494, 489, 491, 494, 487, 505, 480, 481, 495, 485, 482, 495, 492, 497, 506, 489, 499, 490, 500, 496, 497, 503, 490, 503, 493, 491, 490, 496]"
rest,"[498, 503, 506, 483, 488, 498, 499, 485, 499, 497, 492, 490, 500, 508, 498, 496, 498, 481, 488, 497, 489, 498, 494, 490, 494, 490, 510, 489, 507, 490, 494, 506, 496, 503, 492, 495, 480, 498, 501, 489, 485, 503, 491, 491, 494, 483, 492, 511, 480, 493, 492, 495, 492, 506, 499, 503, 486, 497, 492, 499, 494, 497, 491, 501, 497, 488, 495, 493, 498, 493, 492, 494, 516, 467, 494, 489, 493, 503, 488, 495, 498, 496, 494, 506, 495, 491, 486, 493, 482, 501, 493, 487, 497, 494, 486, 494, 497, 492, 493, 492, 494, 492, 493, 493, 494, 496, 494, 492, 496, 494, 494, 494, 494, 494, 493, 494, 495, 495, 494, 494, 493, 494, 494, 494, 494, 494, 494, 494, 495, 494, 496, 495, 495, 494, 494, 494, 495, 494, 494, 495, 495, 495, 494, 494, 495, 495, 494, 495, 494, 494, 494, 494, 494, 494, 496, 495, 494, 495, 494, 494, 495, 494, 495, 494, 494, 494, 494, 494, 494, 495, 494, 494, 494, 495, 494, 493, 494, 494, 494, 495, 493, 494, 493, 494, 493, 494, 494, 493, 494, 493, 494, 493, 494, 493, 494, 493, 494, 494, 494, 493, 494, 494, 494, 494, 494, 494, 493, 494, 493, 493, 493, 494, 493, 493, 493, 493, 493, 493, 493, 493, 493, 494, 494, 493, 494, 493, 494, 493, 493, 493, 493, 494, 493, 493, 493, 493, 493, 493, 493, 493, 492, 494, 493, 493, 492, 492, 492, 493, 493, 492, 493, 493, 493, 492, 493, 493, 493, 492, 493, 493, 493, 493, 492, 492, 492, 493, 493, 493, 492, 493, 492, 492, 493, 493, 493, 493, 494, 492, 492, 493, 493, 492, 492, 492, 493, 493, 493, 492, 493, 493, 492, 493, 492, 493, 492, 493, 492, 493, 492, 493, 492, 492, 492, 492, 492, 492, 492, 492, 494, 492, 493, 493, 493, 492, 493, 492, 492, 492, 492, 492, 492, 493, 492, 493, 492, 492, 492, 493, 491, 492, 492, 493, 492, 493, 492, 492, 492, 492, 492, 492, 492, 492, 493, 492, 493, 492, 492, 493, 492, 492, 492, 492, 493, 492, 492, 492, 492, 492, 492, 493, 492, 492, 492, 492, 492, 492, 493, 492, 492, 492, 492, 492, 493, 492, 492, 491, 492, 492, 492, 492, 492, 493, 492, 491, 492, 491, 493, 492, 491, 492, 492, 493, 492, 492, 491, 492, 492, 492, 492, 491, 493, 492, 492, 492, 492, 491, 492, 491, 492, 491, 493, 491, 492, 492, 492, 492, 492, 492, 491, 492, 492, 492, 492, 491, 492, 492, 492, 492, 491, 494, 489, 491, 492, 492, 492, 492, 492, 491, 492, 492, 492, 491, 491, 492, 492, 492, 492, 492, 492, 492, 491, 492, 492, 492, 492, 492, 491, 492, 493, 491, 492, 491, 492, 492, 492, 492, 492, 491, 492, 492, 492, 491, 491, 492, 492, 492, 491, 492, 492, 492, 491, 492, 492, 492, 492, 492, 491, 492, 492, 492, 492, 491, 492, 492, 493, 492, 492, 492, 492, 492, 492, 492, 492, 492, 491, 491, 492, 493, 491, 492, 491, 492, 492, 492, 492, 491, 493, 492, 491, 491, 491, 492, 492, 492, 492, 491, 493, 492, 492, 491, 491, 492, 492, 492, 492, 493, 492, 492, 491, 492, 492, 492, 491, 492, 493, 492, 491, 491, 492, 492, 492, 492, 492, 491, 492, 492, 492, 492, 492, 492, 492, 492, 492, 491, 492, 492, 492, 492, 491, 492, 492, 492, 491, 492, 492, 492, 492]"
right,"[492, 491, 491, 493, 492, 492, 492, 492, 492, 492, 492, 492, 493, 489, 492, 492, 493, 492, 492, 492, 492, 492, 492, 492, 492, 492, 492, 491, 492, 492, 492, 492, 492, 492, 492, 492, 492, 492, 492, 493, 492, 493, 492, 492, 492, 492, 492, 492, 492, 492, 493, 492, 492, 492, 492, 493, 493, 492, 492, 491, 492, 492, 492, 492, 491, 492, 492, 492, 491, 492, 492, 493, 491, 493, 493, 492, 492, 492, 492, 492, 493, 492, 492, 493, 491, 492, 492, 492, 492, 492, 492, 492, 492, 491, 493, 492, 492, 492, 492, 494, 493, 492, 489, 494, 487, 497, 488, 486, 492, 492, 491, 492, 493, 492, 491, 493, 489, 493, 494, 493, 492, 493, 492, 493, 493, 497, 492, 491, 495, 490, 492, 494, 496, 491, 493, 492, 493, 492, 492, 495, 492, 492, 492, 496, 498, 495, 487, 492, 491, 489, 494, 491, 493, 494, 491, 492, 494, 492, 493, 495, 496, 498, 489, 495, 497, 486, 493, 491, 489, 492, 494, 499, 488, 490, 489, 494, 494, 505, 490, 487, 496, 499, 496, 494, 488, 495, 490, 514, 479, 500, 489, 522, 486, 499, 482, 483, 500, 479, 502, 503, 498, 487, 514, 494, 504, 488, 486, 494, 484, 480, 494, 490, 523, 489, 482, 483, 502, 495, 495, 476, 487, 498, 548, 473, 471, 528, 498, 511, 450, 480, 488, 489, 485, 526, 482, 491, 493, 533, 464, 505, 481, 497, 495, 496, 532, 500, 494, 491, 479, 494, 501, 487, 521, 453, 476, 499, 494, 485, 484, 490, 495, 510, 513, 469, 495, 488, 483, 488, 571, 467, 480, 522, 459, 483, 486, 492, 493, 496, 487, 482, 487, 492, 491, 491, 499, 464, 483, 504, 475, 490, 501, 467, 488, 487, 496, 486, 482, 499, 487, 506, 492, 492, 505, 491, 502, 508, 494, 492, 480, 496, 512, 506, 481, 483, 513, 462, 495, 493, 506, 488, 495, 505, 482, 490, 493, 489, 517, 487, 494, 490, 481, 483, 503, 490, 491, 491, 491, 486, 487, 491, 510, 493, 479, 498, 483, 485, 489, 490, 502, 489, 491, 500, 485, 488, 478, 490, 494, 491, 487, 494, 489, 493, 500, 498, 506, 487, 490, 502, 500, 488, 491, 497, 494, 494, 491, 513, 492, 484, 489, 508, 485, 497, 488, 488, 505, 488, 499, 496, 493, 499, 517, 491, 483, 493, 490, 495, 491, 500, 477, 493, 496, 495, 498, 522, 480, 488, 490, 521, 484, 493, 499, 497, 497, 501, 489, 495, 511, 483, 512, 478, 489, 514, 501, 482, 491, 498, 487, 493, 497, 491, 493, 498, 486, 523, 484, 489, 500, 492, 487, 484, 494, 502, 485, 495, 520, 491, 491, 528, 481, 488, 498, 495, 493, 499, 484, 492, 487, 489, 497, 508, 486, 496, 496, 493, 510, 487, 491, 490, 490, 495, 503, 480, 492, 503, 489, 491, 498, 496, 498, 488, 507, 499, 471, 492, 492, 495, 492, 491, 491, 501, 487, 493, 498, 492, 493, 507, 487, 492, 491, 492, 496, 495, 492, 494, 505, 495, 504, 488, 495, 494, 491, 492, 494, 499, 491, 486, 496, 508, 495, 496, 492, 506, 492, 494, 497, 495, 497, 495, 492, 495, 491, 494, 491, 496, 500, 499, 482, 498, 487, 494, 494, 501, 495, 490, 494, 517, 489, 490, 507, 493, 503, 492, 489, 495, 495, 489, 497, 518, 485, 487, 491, 494, 506, 489, 501, 503, 483, 488, 495, 497, 492, 493, 496, 492, 487, 491, 495]"
rest,"[494, 490, 491, 515, 478, 502, 491, 485, 492, 486, 491, 498, 491, 492, 491, 494, 492, 494, 495, 501, 481, 490, 514, 484, 489, 494, 499, 498, 493, 491, 496, 497, 498, 498, 492, 484, 496, 494, 507, 497, 485, 491, 494, 492, 495, 495, 497, 498, 493, 502, 496, 492, 492, 487, 496, 490, 494, 486, 496, 499, 489, 501, 494, 491, 493, 486, 491, 497, 489, 501, 494, 485, 491, 495, 487, 496, 491, 493, 492, 501, 476, 491, 492, 496, 503, 490, 486, 496, 493, 492, 491, 507, 490, 490, 495, 489, 496, 496, 492, 491, 493, 490, 492, 496, 487, 490, 492, 493, 495, 492, 495, 492, 493, 495, 493, 493, 493, 493, 493, 493, 494, 493, 494, 494, 494, 494, 499, 492, 493, 493, 494, 494, 493, 493, 494, 494, 494, 494, 493, 494, 494, 494, 493, 494, 494, 494, 493, 494, 494, 494, 494, 494, 494, 494, 494, 494, 495, 493, 494, 494, 494, 493, 494, 494, 494, 494, 493, 494, 494, 494, 493, 494, 494, 494, 494, 494, 493, 494, 494, 494, 494, 493, 494, 494, 494, 493, 494, 493, 494, 493, 494, 493, 493, 494, 494, 494, 493, 493, 493, 494, 493, 494, 494, 494, 493, 493, 493, 494, 493, 493, 494, 493, 494, 493, 494, 493, 493, 493, 493, 493, 493, 493, 494, 493, 493, 493, 493, 493, 493, 494, 493, 493, 493, 493, 493, 493, 494, 493, 493, 493, 493, 492, 494, 492, 493, 493, 493, 493, 494, 493, 493, 492, 493, 492, 492, 493, 493, 493, 492, 493, 493, 493, 493, 493, 492, 493, 492, 493, 493, 492, 493, 493, 493, 492, 493, 492, 493, 492, 494, 492, 493, 492, 493, 492, 493, 492, 492, 493, 492, 493, 492, 492, 492, 493, 493, 493, 492, 492, 492, 492, 493, 492, 492, 492, 493, 493, 493, 492, 492, 492, 492, 491, 492, 492, 492, 492, 492, 493, 492, 493, 492, 492, 492, 492, 492, 493, 492, 492, 493, 492, 492, 491, 493, 492, 493, 492, 493, 492, 494, 492, 492, 492, 493, 492, 492, 492, 492, 493, 492, 492, 492, 492, 492, 492, 492, 492, 492, 492, 492, 492, 492, 492, 492, 492, 493, 492, 491, 492, 492, 491, 492, 492, 492, 493, 492, 492, 492, 493, 492, 492, 492, 492, 492, 493, 492, 492, 493, 493, 492, 492, 493, 492, 492, 492, 492, 492, 493, 492, 493, 492, 492, 491, 492, 492, 492, 493, 492, 492, 492, 493, 492, 492, 492, 493, 492, 492, 492, 492, 492, 495, 492, 490, 493, 491, 492, 492, 492, 492, 492, 492, 492, 493, 491, 491, 492, 492, 492, 491, 492, 492, 493, 492, 492, 492, 492, 491, 492, 492, 492, 492, 492, 492, 492, 492, 493, 491, 492, 492, 492, 492, 492, 492, 492, 493, 492, 492, 492, 492, 492, 492, 492, 492, 492, 492, 492, 492, 492, 492, 492, 492, 492, 491, 492, 492, 492, 492, 493, 492, 493, 492, 492, 491, 492, 493, 491, 492, 492, 492, 491, 492, 491, 492, 492, 493, 491, 492, 492, 492, 492, 492, 493, 492, 493, 492, 492, 492, 492, 492, 493, 491, 492, 493, 492, 492, 492, 492, 492, 492, 492, 492, 492, 492, 491, 493, 492, 492, 492, 492, 492, 492, 492, 492, 492, 492, 492, 491, 493, 492, 492, 492, 493, 492, 492, 492, 492, 492, 492, 493, 491, 492, 492, 492, 492, 493, 492, 492, 493, 492, 492, 492, 492, 491, 492, 492, 491, 492, 493]"
right,"[492, 492, 493, 493, 492, 492, 491, 492, 493, 492, 492, 492, 492, 492, 493, 492, 493, 492, 492, 493, 491, 492, 492, 492, 492, 492, 492, 492, 493, 492, 492, 492, 492, 492, 492, 492, 493, 492, 492, 492, 492, 492, 491, 492, 492, 492, 493, 492, 493, 492, 492, 492, 492, 493, 492, 493, 492, 493, 492, 493, 493, 492, 493, 493, 492, 492, 493, 492, 492, 492, 493, 492, 492, 492, 492, 492, 492, 492, 492, 492, 492, 491, 492, 492, 492, 493, 492, 492, 492, 493, 492, 492, 491, 491, 493, 492, 493, 492, 494, 500, 485, 492, 493, 496, 492, 496, 511, 481, 497, 491, 507, 478, 487, 491, 498, 498, 489, 490, 499, 484, 492, 497, 487, 492, 492, 499, 496, 493, 490, 498, 488, 494, 500, 487, 493, 506, 486, 495, 492, 517, 486, 484, 497, 502, 500, 477, 507, 479, 512, 492, 493, 524, 472, 506, 472, 490, 505, 490, 494, 488, 510, 505, 476, 483, 518, 502, 480, 488, 482, 492, 491, 482, 503, 485, 495, 484, 484, 495, 512, 482, 480, 499, 504, 502, 511, 496, 485, 502, 525, 481, 497, 500, 485, 492, 501, 491, 477, 493, 488, 488, 487, 497, 497, 511, 481, 485, 515, 476, 517, 482, 489, 492, 486, 490, 488, 502, 488, 522, 483, 484, 505, 505, 499, 485, 506, 482, 493, 494, 486, 496, 501, 486, 503, 479, 485, 504, 495, 487, 479, 486, 499, 487, 494, 488, 492, 510, 491, 490, 497, 502, 484, 515, 499, 485, 506, 495, 487, 506, 493, 489, 504, 483, 490, 521, 484, 495, 501, 494, 513, 491, 480, 496, 494, 500, 492, 490, 498, 495, 489, 499, 491, 490, 492, 498, 491, 505, 484, 490, 496, 492, 480, 490, 493, 500, 493, 495, 494, 494, 497, 506, 483, 508, 471, 497, 495, 483, 493, 499, 489, 490, 514, 477, 491, 512, 488, 491, 491, 500, 492, 492, 490, 495, 497, 493, 496, 505, 484, 499, 480, 492, 496, 490, 490, 493, 492, 494, 491, 491, 501, 507, 497, 494, 493, 500, 488, 490, 490, 492, 498, 492, 492, 493, 504, 497, 492, 487, 497, 491, 493, 490, 495, 497, 491, 499, 492, 494, 494, 507, 492, 492, 493, 496, 494, 494, 494, 490, 490, 495, 494, 493, 491, 495, 495, 495, 492, 497, 493, 497, 490, 495, 494, 497, 483, 495, 493, 494, 494, 495, 493, 494, 497, 501, 494, 491, 494, 499, 480, 488, 493, 495, 491, 491, 493, 493, 495, 490, 493, 493, 495, 498, 493, 497, 506, 488, 491, 497, 510, 501, 494, 491, 491, 495, 491, 502, 499, 493, 495, 489, 491, 501, 493, 493, 495, 497, 493, 493, 497, 500, 484, 497, 491, 493, 496, 494, 488, 500, 491, 496, 493, 488, 504, 488, 496, 503, 497, 494, 494, 493, 491, 493, 495, 488, 493, 493, 491, 494, 493, 494, 492, 487, 493, 496, 490, 494, 494, 495, 490, 495, 496, 498, 493, 495, 493, 495, 491, 490, 492, 499, 493, 490, 496, 490, 497, 494, 492, 498, 491, 493, 495, 501, 493, 492, 493, 503, 495, 493, 487, 491, 492, 497, 487, 498, 491, 495, 498, 487, 490, 493, 490, 491, 487, 494, 490, 492, 492, 497, 514, 491, 488, 493, 493, 497, 494, 489, 494, 493, 490, 492, 492, 495, 502, 490, 493, 494, 496, 488, 498, 492, 495, 490, 498, 482, 489, 489, 494, 497, 488, 493, 499, 498, 490, 493, 494, 499, 490, 489, 493]"
rest,"[491, 495, 486, 495, 494, 491, 494, 493, 510, 490, 491, 493, 503, 491, 495, 492, 494, 492, 494, 491, 517, 472, 493, 487, 505, 488, 485, 491, 488, 494, 494, 495, 491, 498, 495, 501, 487, 492, 495, 494, 490, 490, 499, 482, 490, 499, 495, 496, 495, 489, 488, 494, 489, 499, 490, 488, 494, 492, 490, 495, 496, 488, 498, 482, 494, 494, 489, 491, 500, 490, 490, 492, 493, 491, 507, 484, 493, 495, 492, 491, 492, 490, 492, 490, 501, 487, 497, 491, 496, 490, 496, 502, 485, 488, 489, 494, 490, 491, 493, 493, 493, 493, 491, 491, 494, 492, 493, 493, 493, 493, 494, 494, 493, 494, 493, 493, 493, 493, 493, 493, 493, 494, 493, 494, 493, 494, 494, 494, 493, 494, 494, 494, 493, 493, 494, 494, 494, 493, 494, 493, 494, 493, 494, 493, 493, 493, 493, 493, 493, 493, 493, 494, 492, 494, 493, 494, 493, 494, 492, 493, 493, 493, 493, 492, 494, 493, 493, 493, 493, 493, 493, 493, 493, 493, 493, 493, 492, 493, 493, 493, 492, 493, 492, 492, 493, 493, 492, 493, 493, 493, 493, 493, 492, 493, 494, 492, 493, 492, 493, 493, 493, 492, 492, 493, 493, 492, 492, 493, 492, 493, 492, 493, 493, 493, 492, 492, 492, 492, 492, 492, 492, 492, 494, 493, 493, 493, 492, 493, 493, 492, 493, 492, 493, 493, 492, 492, 492, 493, 493, 493, 492, 493, 493, 493, 492, 493, 493, 493, 493, 492, 492, 493, 493, 492, 493, 492, 492, 492, 493, 492, 493, 493, 493, 492, 493, 492, 493, 493, 492, 493, 493, 492, 492, 493, 492, 492, 493, 492, 492, 492, 494, 492, 492, 492, 493, 492, 493, 492, 492, 492, 493, 492, 492, 492, 493, 492, 492, 492, 492, 493, 492, 493, 493, 493, 493, 493, 492, 492, 493, 493, 492, 492, 493, 492, 493, 492, 493, 492, 492, 492, 493, 492, 492, 492, 493, 492, 492, 492, 493, 492, 493, 492, 493, 493, 492, 493, 492, 493, 493, 493, 492, 492, 493, 492, 493, 492, 493, 492, 493, 493, 492, 492, 492, 493, 493, 493, 492, 494, 492, 493, 492, 493, 493, 493, 492, 493, 493, 492, 493, 493, 492, 492, 493, 492, 494, 492, 493, 493, 492, 492, 493, 492, 493, 492, 492, 492, 493, 493, 492, 493, 492, 493, 493, 492, 492, 493, 493, 493, 493, 492, 492, 493, 493, 491, 493, 492, 493, 492, 493, 492, 493, 493, 492, 492, 492, 493, 493, 494, 492, 493, 493, 493, 492, 493, 493, 492, 492, 492, 493, 492, 493, 493, 493, 493, 493, 492, 493, 492, 493, 493, 493, 492, 492, 492, 493, 493, 492, 492, 492, 494, 493, 493, 492, 493, 493, 492, 493, 492, 492, 493, 493, 493, 493, 493, 493, 493, 493, 493, 493, 493, 492, 492, 493, 493, 493, 493, 492, 492, 492, 493, 492, 493, 492, 493, 493, 493, 492, 492, 493, 493, 493, 492, 493, 493, 493, 493, 493, 493, 493, 493, 493, 492, 493, 492, 493, 493, 492, 493, 493, 493, 493, 493, 493, 493, 493, 492, 492, 493, 493, 492, 493, 492, 493, 493, 493, 492, 493, 493, 493, 493, 493, 494, 493, 493, 492, 493, 493, 493, 493, 493, 492, 493, 493, 493, 492, 492, 493, 493, 493, 493, 493, 493, 493, 492, 493, 492, 494, 493, 493, 493, 492, 493, 492, 493, 492, 493, 493, 493, 493, 493, 492, 492, 493, 493, 492, 493, 492]"
right,"[492, 494, 493, 493, 493, 493, 493, 493, 493, 493, 493, 492, 494, 493, 492, 493, 493, 493, 493, 493, 493, 493, 494, 493, 493, 492, 493, 493, 493, 492, 493, 493, 493, 493, 492, 493, 493, 493, 492, 493, 493, 493, 493, 493, 494, 493, 493, 493, 493, 492, 493, 493, 494, 492, 493, 492, 492, 493, 492, 492, 493, 493, 493, 492, 493, 493, 492, 493, 493, 492, 494, 493, 493, 492, 493, 493, 493, 493, 493, 492, 493, 493, 493, 492, 492, 493, 493, 493, 493, 493, 493, 493, 492, 493, 493, 493, 492, 493, 492, 493, 493, 492, 493, 491, 494, 492, 493, 496, 490, 493, 492, 492, 493, 492, 493, 493, 493, 492, 493, 493, 493, 493, 492, 492, 494, 494, 493, 491, 493, 494, 495, 493, 496, 491, 493, 495, 492, 491, 492, 493, 493, 493, 493, 492, 492, 493, 493, 493, 493, 493, 492, 494, 496, 491, 494, 493, 497, 487, 491, 491, 494, 497, 496, 493, 498, 489, 495, 488, 501, 494, 487, 492, 493, 493, 497, 493, 498, 503, 492, 485, 495, 487, 492, 500, 492, 493, 489, 499, 499, 488, 497, 504, 488, 490, 495, 506, 502, 509, 475, 488, 490, 491, 501, 499, 495, 491, 504, 491, 478, 494, 500, 528, 463, 485, 491, 498, 500, 486, 489, 494, 496, 491, 493, 487, 489, 504, 509, 506, 488, 495, 501, 491, 483, 490, 492, 501, 529, 475, 489, 487, 483, 502, 490, 492, 496, 506, 508, 494, 537, 487, 483, 500, 492, 489, 495, 497, 498, 484, 496, 495, 491, 499, 486, 508, 491, 490, 495, 485, 491, 496, 493, 492, 505, 502, 483, 505, 508, 486, 493, 494, 492, 488, 488, 495, 492, 492, 489, 496, 505, 488, 492, 492, 487, 502, 489, 489, 493, 518, 488, 488, 485, 493, 494, 500, 493, 496, 486, 494, 498, 493, 502, 494, 494, 490, 492, 489, 500, 501, 485, 487, 497, 489, 500, 501, 507, 494, 487, 487, 490, 495, 495, 499, 491, 484, 492, 492, 492, 514, 474, 486, 492, 490, 506, 493, 503, 477, 494, 491, 504, 499, 499, 503, 493, 488, 500, 487, 491, 487, 494, 493, 494, 489, 493, 512, 488, 493, 493, 498, 491, 504, 491, 496, 493, 486, 493, 495, 489, 493, 491, 494, 491, 499, 497, 489, 484, 497, 487, 492, 493, 491, 495, 489, 493, 496, 498, 490, 492, 484, 490, 491, 491, 493, 492, 492, 497, 490, 492, 491, 496, 498, 498, 505, 489, 488, 496, 490, 500, 500, 494, 488, 493, 505, 490, 501, 492, 488, 490, 493, 498, 486, 494, 496, 495, 489, 501, 497, 500, 486, 493, 493, 504, 495, 492, 499, 493, 502, 492, 492, 485, 492, 494, 489, 496, 492, 496, 491, 496, 490, 493, 498, 492, 491, 503, 503, 491, 492, 499, 489, 493, 496, 494, 501, 485, 494, 495, 493, 494, 495, 494, 497, 495, 495, 494, 494, 493, 495, 495, 494, 488, 489, 496, 497, 498, 494, 485, 492, 492, 494, 493, 508, 489, 491, 491, 503, 492, 497, 489, 492, 494, 491, 501, 494, 494, 492, 493, 494, 493, 493, 486, 493, 502, 492, 486, 492, 499, 501, 501, 492, 498, 513, 476, 489, 489, 492, 496, 498, 495, 491, 492, 491, 497, 485, 497, 495, 497, 487, 492, 495, 484, 512, 490, 487, 492, 498, 492, 485, 491, 490, 495, 493, 492, 517, 486, 491, 492, 490, 495, 493, 480, 489, 504, 495, 495, 491, 504, 491]"
rest,"[493, 493, 492, 491, 501, 508, 494, 490, 496, 485, 494, 495, 492, 493, 492, 490, 496, 502, 497, 480, 502, 493, 500, 487, 493, 499, 494, 501, 489, 493, 497, 487, 494, 499, 491, 492, 496, 489, 491, 495, 518, 481, 489, 501, 488, 496, 499, 496, 491, 493, 492, 491, 492, 496, 494, 496, 490, 489, 494, 490, 496, 495, 492, 493, 492, 492, 495, 492, 494, 497, 497, 491, 489, 494, 494, 492, 497, 491, 495, 504, 485, 490, 490, 492, 493, 492, 488, 493, 490, 492, 493, 492, 494, 491, 501, 498, 488, 496, 500, 502, 497, 485, 494, 492, 493, 492, 487, 492, 490, 494, 495, 492, 489, 495, 503, 491, 500, 494, 489, 492, 492, 499, 492, 494, 492, 493, 495, 494, 495, 493, 493, 493, 493, 493, 492, 493, 494, 493, 494, 494, 493, 493, 493, 494, 493, 493, 494, 493, 493, 493, 494, 493, 494, 493, 494, 494, 494, 493, 494, 493, 493, 494, 494, 493, 494, 495, 493, 494, 493, 494, 493, 494, 493, 493, 493, 494, 493, 493, 494, 493, 494, 493, 494, 493, 494, 493, 493, 493, 493, 493, 494, 493, 493, 493, 494, 494, 493, 494, 493, 493, 493, 493, 493, 493, 494, 493, 492, 493, 493, 493, 494, 493, 493, 493, 494, 493, 493, 492, 493, 493, 493, 493, 493, 494, 493, 494, 493, 493, 493, 493, 493, 493, 493, 493, 494, 493, 493, 493, 494, 493, 493, 492, 493, 493, 493, 494, 493, 493, 494, 493, 492, 493, 493, 493, 493, 493, 494, 493, 493, 493, 492, 493, 493, 493, 494, 493, 492, 493, 493, 492, 493, 492, 493, 493, 493, 492, 493, 492, 493, 493, 492, 493, 493, 493, 493, 493, 493, 494, 492, 493, 492, 493, 493, 493, 493, 492, 493, 493, 493, 492, 492, 493, 492, 493, 492, 493, 493, 493, 493, 493, 493, 493, 493, 493, 492, 493, 493, 493, 492, 493, 493, 493, 492, 492, 492, 493, 493, 492, 493, 492, 493, 492, 493, 492, 493, 492, 492, 493, 492, 493, 493, 493, 492, 493, 493, 493, 492, 492, 492, 493, 493, 493, 492, 492, 493, 492, 493, 492, 492, 492, 493, 492, 493, 493, 493, 492, 492, 493, 492, 492, 492, 493, 492, 493, 492, 493, 492, 492, 493, 493, 492, 493, 493, 493, 493, 494, 493, 492, 493, 493, 493, 492, 493, 493, 492, 492, 492, 493, 492, 493, 492, 492, 493, 493, 492, 493, 492, 492, 492, 493, 490, 492, 492, 492, 493, 492, 492, 492, 493, 491, 492, 492, 493, 492, 493, 492, 492, 492, 492, 493, 492, 493, 491, 493, 492, 493, 493, 492, 492, 492, 492, 493, 492, 492, 493, 492, 494, 492, 492, 492, 491, 491, 492, 492, 493, 493, 492, 493, 492, 493, 492, 493, 492, 493, 491, 492, 492, 492, 491, 492, 493, 493, 492, 492, 492, 492, 493, 492, 493, 493, 493, 493, 493, 493, 492, 491, 492, 492, 493, 493, 492, 493, 492, 493, 493, 492, 492, 492, 492, 493, 493, 493, 490, 492, 493, 493, 492, 492, 492, 492, 493, 492, 493, 493, 494, 492, 492, 492, 492, 492, 492, 493, 492, 493, 494, 492, 492, 492, 493, 492, 493, 492, 492, 492, 493, 492, 493, 493, 493, 492, 492, 492, 493, 493, 492, 492, 492, 493, 492, 494, 492, 493, 492, 493, 492, 492, 492, 493, 493, 493, 493, 493, 493, 492, 493, 492, 492, 492, 493, 492, 492, 494, 493, 492, 493, 493, 495]"
right,"[492, 493, 500, 490, 492, 491, 492, 492, 492, 492, 492, 492, 496, 491, 492, 493, 492, 494, 494, 493, 492, 492, 491, 493, 492, 492, 492, 493, 493, 492, 493, 493, 494, 492, 493, 492, 492, 492, 492, 493, 492, 492, 493, 493, 493, 493, 492, 493, 492, 493, 493, 492, 494, 493, 494, 494, 498, 488, 492, 492, 493, 493, 492, 492, 494, 492, 493, 491, 495, 493, 492, 493, 492, 493, 492, 493, 493, 494, 492, 493, 494, 490, 493, 493, 496, 490, 493, 493, 494, 492, 492, 493, 496, 490, 500, 488, 495, 495, 491, 495, 492, 492, 492, 494, 495, 492, 492, 496, 493, 500, 491, 494, 493, 499, 492, 493, 494, 492, 493, 504, 481, 488, 498, 484, 495, 491, 499, 495, 487, 493, 497, 490, 491, 493, 494, 505, 485, 492, 487, 510, 491, 483, 503, 487, 493, 492, 493, 505, 489, 496, 504, 484, 491, 492, 497, 490, 509, 481, 509, 507, 478, 511, 479, 490, 499, 510, 474, 497, 496, 497, 486, 502, 505, 489, 504, 488, 487, 496, 488, 494, 491, 493, 515, 480, 494, 493, 507, 487, 496, 494, 493, 491, 492, 503, 488, 503, 487, 489, 497, 488, 501, 499, 497, 490, 485, 493, 502, 492, 496, 500, 489, 494, 503, 492, 499, 497, 499, 478, 493, 498, 485, 474, 498, 498, 486, 490, 500, 496, 493, 489, 492, 487, 491, 490, 491, 491, 490, 493, 488, 499, 493, 500, 494, 500, 494, 481, 497, 496, 492, 490, 497, 492, 496, 495, 503, 492, 484, 487, 495, 503, 499, 488, 507, 485, 490, 488, 495, 503, 490, 489, 498, 491, 488, 503, 487, 490, 492, 493, 493, 508, 494, 493, 484, 495, 498, 488, 491, 489, 487, 490, 497, 494, 491, 492, 493, 492, 493, 491, 495, 495, 495, 496, 495, 499, 504, 494, 494, 500, 489, 503, 485, 489, 489, 493, 493, 494, 493, 497, 491, 491, 492, 492, 492, 492, 500, 497, 504, 485, 492, 493, 493, 498, 493, 498, 490, 507, 484, 492, 491, 505, 484, 492, 492, 497, 503, 491, 496, 488, 501, 485, 493, 497, 492, 491, 493, 495, 507, 492, 502, 494, 494, 502, 492, 491, 500, 494, 493, 496, 495, 488, 493, 491, 494, 492, 494, 493, 502, 488, 495, 491, 498, 491, 513, 483, 495, 490, 492, 501, 490, 492, 497, 490, 494, 491, 495, 490, 495, 492, 494, 492, 495, 499, 488, 501, 491, 490, 489, 492, 494, 495, 492, 493, 491, 495, 497, 489, 494, 490, 493, 495, 489, 493, 497, 498, 486, 496, 502, 478, 495, 488, 493, 497, 491, 491, 492, 494, 495, 506, 488, 493, 499, 491, 493, 495, 494, 493, 489, 490, 493, 497, 490, 494, 493, 497, 497, 503, 483, 491, 497, 494, 492, 509, 493, 492, 493, 492, 500, 491, 492, 491, 496, 491, 493, 492, 496, 495, 491, 494, 498, 491, 491, 498, 492, 489, 493, 494, 491, 494, 494, 491, 497, 503, 487, 499, 487, 492, 495, 493, 495, 492, 501, 489, 495, 495, 497, 494, 494, 492, 488, 496, 493, 492, 495, 494, 492, 495, 493, 495, 492, 497, 499, 498, 490, 487, 492, 496, 502, 492, 491, 491, 494, 492, 493, 494, 498, 496, 492, 493, 510, 476, 494, 495, 492, 491, 493, 494, 492, 493, 493, 492, 501, 494, 495, 502, 497, 489, 489, 492, 498, 493, 492, 495, 494, 495, 488, 496, 493, 496, 490, 491, 498, 489, 496, 492, 493, 492, 494]"
rest,"[492, 494, 492, 504, 494, 483, 495, 492, 490, 496, 493, 494, 493, 492, 494, 492, 494, 494, 499, 487, 492, 500, 493, 491, 494, 498, 493, 492, 499, 494, 495, 492, 497, 489, 494, 492, 493, 491, 492, 494, 492, 495, 494, 495, 495, 484, 497, 493, 491, 494, 491, 492, 499, 488, 495, 491, 494, 493, 492, 495, 494, 499, 496, 493, 496, 492, 497, 489, 493, 496, 492, 493, 495, 489, 494, 494, 493, 493, 491, 493, 495, 488, 493, 492, 492, 494, 492, 494, 490, 493, 493, 495, 492, 495, 493, 494, 495, 493, 493, 494, 493, 494, 493, 494, 494, 494, 493, 494, 493, 493, 494, 493, 494, 494, 494, 494, 494, 494, 494, 494, 494, 493, 494, 494, 494, 494, 494, 494, 494, 494, 493, 494, 494, 494, 494, 494, 493, 494, 494, 494, 494, 494, 494, 494, 494, 494, 494, 494, 494, 493, 494, 494, 494, 494, 494, 494, 494, 494, 494, 494, 494, 494, 493, 494, 494, 493, 494, 494, 494, 493, 494, 493, 494, 493, 494, 495, 494, 494, 494, 493, 494, 493, 493, 494, 493, 494, 493, 494, 493, 494, 493, 494, 493, 495, 493, 493, 494, 493, 494, 494, 494, 493, 494, 493, 493, 493, 493, 493, 493, 492, 493, 493, 494, 493, 494, 493, 493, 494, 493, 494, 493, 493, 493, 493, 493, 493, 494, 493, 493, 493, 494, 493, 494, 494, 493, 493, 493, 493, 494, 493, 493, 494, 493, 494, 493, 493, 493, 493, 493, 493, 493, 493, 493, 493, 493, 493, 493, 493, 493, 493, 493, 493, 493, 493, 493, 493, 493, 493, 493, 493, 493, 493, 493, 493, 493, 493, 493, 493, 493, 493, 493, 493, 492, 493, 493, 492, 494, 493, 494, 492, 493, 493, 494, 492, 492, 493, 493, 493, 493, 493, 493, 493, 493, 493, 493, 493, 493, 493, 493, 493, 493, 493, 493, 493, 493, 493, 493, 493, 493, 492, 493, 493, 494, 492, 493, 494, 493, 493, 493, 493, 493, 493, 493, 493, 492, 493, 492, 493, 492, 493, 493, 492, 493, 492, 493, 493, 493, 492, 492, 493, 493, 493, 492, 494, 493, 493, 493, 493, 492, 493, 493, 493, 492, 493, 493, 493, 492, 492, 493, 493, 493, 493, 493, 492, 493, 493, 492, 492, 493, 493, 493, 493, 493, 494, 493, 493, 492, 493, 493, 493, 493, 493, 492, 493, 493, 493, 492, 493, 493, 493, 493, 493, 493, 493, 493, 493, 493, 493, 493, 492, 493, 493, 493, 493, 492, 493, 493, 494, 492, 493, 492, 492, 493, 493, 493, 493, 493, 493, 493, 493, 493, 493, 493, 493, 493, 492, 493, 493, 493, 493, 493, 494, 493, 493, 492, 493, 493, 493, 493, 493, 493, 493, 493, 493, 492, 493, 493, 493, 493, 493, 493, 493, 493, 493, 493, 492, 493, 492, 493, 492, 493, 493, 493, 493, 492, 494, 493, 493, 493, 492, 493, 493, 493, 493, 494, 493, 493, 493, 493, 493, 492, 493, 493, 493, 493, 493, 493, 493, 493, 493, 493, 493, 492, 493, 493, 492, 492, 493, 493, 493, 493, 493, 493, 493, 493, 492, 493, 492, 494, 493, 494, 493, 492, 493, 493, 492, 493, 492, 493, 493, 493, 493, 492, 493, 493, 493, 492, 492, 493, 493, 493, 493, 494, 493, 493, 492, 493, 493, 493, 492, 493, 492, 493, 493, 493, 492, 493, 494, 493, 493, 492, 492, 493, 493, 492, 493, 493, 494, 493, 493, 492, 493, 492, 492, 493, 492, 493]"
right,"[493, 493, 492, 493, 493, 493, 493, 493, 492, 493, 493, 492, 493, 492, 493, 493, 493, 492, 493, 493, 493, 492, 493, 494, 493, 493, 492, 493, 493, 493, 492, 493, 492, 493, 493, 493, 493, 493, 492, 493, 493, 492, 493, 492, 493, 492, 493, 493, 493, 493, 492, 492, 493, 493, 493, 493, 493, 493, 493, 493, 493, 492, 494, 492, 492, 493, 492, 493, 494, 493, 493, 492, 493, 493, 494, 493, 493, 492, 493, 492, 493, 494, 493, 492, 493, 494, 493, 493, 492, 492, 493, 493, 490, 494, 491, 498, 494, 494, 500, 486, 491, 491, 492, 492, 494, 493, 494, 495, 496, 492, 494, 496, 491, 495, 489, 493, 496, 492, 495, 494, 491, 493, 495, 492, 492, 493, 494, 493, 493, 499, 490, 490, 493, 494, 490, 493, 492, 492, 492, 498, 489, 495, 492, 493, 494, 523, 470, 488, 490, 501, 505, 482, 492, 496, 488, 491, 490, 498, 485, 486, 495, 487, 496, 494, 496, 500, 484, 499, 491, 490, 493, 497, 486, 490, 500, 499, 485, 513, 499, 482, 487, 494, 487, 499, 512, 495, 486, 492, 496, 477, 498, 484, 515, 482, 493, 496, 489, 492, 505, 489, 494, 493, 513, 498, 487, 493, 486, 498, 498, 496, 486, 501, 500, 485, 482, 491, 497, 493, 492, 489, 497, 492, 490, 493, 503, 483, 502, 498, 490, 487, 489, 497, 493, 490, 493, 491, 490, 511, 486, 493, 497, 496, 494, 495, 501, 494, 492, 499, 494, 495, 491, 485, 493, 496, 493, 495, 494, 496, 493, 496, 480, 489, 494, 500, 488, 496, 490, 490, 480, 488, 491, 507, 490, 487, 511, 472, 485, 491, 492, 508, 491, 489, 488, 490, 491, 510, 483, 492, 490, 498, 495, 491, 494, 490, 512, 484, 490, 494, 486, 493, 502, 487, 492, 506, 489, 493, 500, 486, 494, 495, 498, 492, 506, 484, 490, 491, 495, 492, 493, 490, 497, 493, 490, 497, 490, 500, 482, 493, 494, 494, 484, 493, 497, 497, 494, 492, 494, 491, 492, 491, 493, 493, 505, 492, 502, 495, 489, 491, 492, 494, 492, 488, 492, 506, 492, 496, 493, 492, 492, 497, 492, 494, 499, 488, 494, 496, 492, 495, 491, 490, 493, 496, 494, 486, 493, 492, 492, 496, 490, 491, 491, 500, 494, 492, 489, 492, 491, 494, 494, 497, 489, 491, 494, 493, 495, 502, 492, 488, 489, 493, 493, 504, 489, 493, 492, 495, 490, 495, 489, 492, 494, 492, 490, 494, 492, 494, 492, 492, 493, 492, 497, 496, 490, 491, 493, 493, 494, 489, 494, 488, 495, 494, 490, 491, 492, 493, 492, 500, 481, 491, 493, 489, 493, 492, 494, 494, 493, 493, 494, 492, 490, 493, 490, 493, 493, 492, 490, 493, 495, 493, 501, 489, 491, 493, 492, 490, 492, 488, 492, 491, 491, 499, 491, 492, 491, 493, 493, 495, 492, 494, 494, 484, 491, 493, 489, 491, 493, 493, 493, 498, 495, 490, 493, 491, 493, 491, 493, 491, 493, 494, 487, 491, 490, 500, 497, 491, 492, 495, 491, 495, 494, 492, 493, 492, 493, 488, 493, 491, 498, 493, 492, 491, 491, 493, 491, 491, 491, 499, 493, 491, 492, 490, 490, 491, 492, 496, 489, 494, 496, 493, 493, 490, 493, 498, 488, 492, 493, 491, 489, 493, 492, 492, 493, 493, 493, 494, 494, 488, 492, 493, 494, 495, 492, 495, 490, 497, 490, 491, 492, 492, 494, 495, 490, 491, 492, 492, 492]"
rest,"[491, 493, 494, 491, 493, 490, 495, 492, 492, 492, 493, 493, 492, 491, 491, 493, 492, 493, 492, 493, 491, 493, 501, 489, 495, 492, 490, 495, 497, 490, 491, 494, 491, 494, 492, 492, 493, 491, 494, 492, 493, 494, 491, 494, 487, 495, 491, 493, 492, 490, 492, 494, 491, 492, 492, 493, 492, 492, 493, 492, 493, 492, 492, 496, 494, 492, 490, 493, 491, 493, 492, 492, 493, 494, 491, 498, 492, 501, 488, 491, 496, 494, 491, 492, 491, 492, 492, 492, 492, 492, 492, 492, 493, 492, 492, 493, 492, 492, 492, 493, 492, 492, 492, 493, 492, 493, 492, 493, 493, 492, 493, 493, 492, 493, 493, 493, 493, 493, 494, 492, 493, 493, 493, 493, 493, 493, 493, 494, 493, 493, 493, 493, 493, 494, 493, 493, 493, 493, 492, 493, 493, 493, 493, 493, 493, 492, 493, 493, 493, 492, 493, 493, 493, 493, 493, 492, 493, 492, 492, 493, 492, 493, 493, 493, 492, 493, 493, 493, 492, 493, 493, 493, 492, 492, 493, 493, 493, 492, 493, 492, 493, 492, 493, 492, 492, 493, 493, 492, 492, 493, 492, 493, 492, 493, 492, 493, 493, 492, 492, 492, 493, 492, 493, 492, 493, 493, 493, 492, 493, 493, 493, 493, 493, 492, 493, 492, 492, 493, 492, 492, 492, 492, 492, 493, 493, 493, 493, 492, 492, 493, 493, 492, 492, 492, 493, 493, 493, 492, 492, 492, 492, 491, 493, 493, 493, 493, 492, 493, 492, 493, 492, 493, 492, 492, 492, 492, 492, 492, 493, 494, 493, 492, 493, 493, 493, 492, 493, 493, 493, 492, 492, 493, 493, 492, 492, 493, 492, 493, 493, 493, 492, 493, 492, 492, 493, 492, 492, 493, 493, 492, 493, 493, 493, 492, 493, 491, 492, 493, 492, 492, 492, 493, 492, 493, 492, 492, 493, 492, 492, 493, 492, 493, 492, 493, 492, 492, 493, 492, 492, 492, 493, 492, 493, 492, 492, 493, 493, 492, 493, 493, 492, 493, 493, 493, 492, 493, 492, 493, 492, 493, 492, 493, 492, 493, 492, 493, 493, 492, 493, 493, 493, 492, 493, 492, 493, 493, 493, 492, 493, 493, 492, 493, 492, 493, 493, 493, 493, 493, 493, 493, 493, 493, 492, 493, 493, 493, 493, 493, 493, 493, 493, 493, 493, 494, 493, 492, 492, 493, 493, 493, 493, 493, 492, 493, 493, 493, 492, 493, 493, 493, 493, 493, 493, 493, 493, 493, 493, 493, 493, 493, 493, 493, 493, 494, 493, 492, 493, 493, 493, 493, 493, 493, 493, 493, 493, 493, 492, 493, 493, 493, 492, 493, 493, 493, 493, 493, 493, 493, 493, 493, 493, 494, 493, 492, 493, 493, 493, 493, 493, 493, 493, 493, 493, 493, 493, 492, 493, 493, 493, 493, 493, 493, 493, 493, 493, 493, 493, 493, 493, 493, 493, 493, 493, 493, 493, 494, 493, 493, 492, 493, 493, 493, 493, 493, 493, 493, 493, 493, 493, 493, 493, 492, 493, 493, 493, 493, 493, 493, 493, 494, 493, 493, 493, 493, 493, 493, 493, 493, 492, 494, 493, 494, 493, 493, 493, 493, 493, 493, 493, 493, 493, 493, 493, 493, 493, 492, 494, 493, 493, 494, 493, 493, 493, 493, 493, 493, 493, 493, 493, 493, 493, 493, 493, 494, 493, 493, 493, 494, 493, 493, 493, 493, 493, 493, 494, 493, 494, 494, 493, 493, 493, 493, 493, 494, 493, 493, 493, 494, 493, 493, 493, 493, 493, 493, 493, 493, 494]"
right,"[493, 493, 493, 493, 493, 493, 493, 493, 493, 494, 493, 493, 493, 493, 494, 493, 493, 493, 494, 493, 494, 493, 493, 493, 494, 493, 493, 493, 493, 493, 493, 493, 493, 494, 493, 494, 493, 493, 494, 493, 494, 493, 493, 493, 494, 493, 493, 493, 494, 493, 494, 493, 493, 493, 493, 493, 493, 494, 493, 493, 493, 493, 493, 494, 493, 493, 493, 493, 493, 493, 493, 493, 493, 493, 493, 493, 493, 493, 493, 493, 493, 493, 493, 493, 493, 493, 493, 493, 493, 493, 492, 493, 493, 493, 493, 492, 493, 493, 493, 493, 492, 493, 494, 493, 493, 492, 493, 494, 494, 492, 496, 489, 494, 491, 491, 493, 493, 493, 492, 493, 493, 493, 492, 493, 493, 494, 491, 491, 493, 494, 494, 500, 484, 492, 495, 494, 491, 493, 492, 492, 493, 493, 494, 494, 494, 494, 498, 492, 488, 494, 495, 493, 491, 494, 496, 492, 491, 498, 491, 494, 491, 493, 495, 492, 493, 492, 495, 493, 494, 492, 495, 490, 494, 494, 496, 494, 489, 492, 495, 494, 495, 495, 492, 491, 497, 489, 492, 491, 493, 493, 492, 492, 498, 493, 491, 501, 501, 489, 492, 491, 491, 505, 499, 489, 489, 495, 492, 491, 491, 494, 492, 493, 499, 491, 503, 492, 492, 492, 492, 495, 494, 504, 493, 488, 509, 484, 493, 488, 492, 492, 493, 494, 492, 493, 496, 495, 489, 491, 493, 498, 491, 503, 492, 494, 489, 497, 492, 492, 492, 492, 494, 499, 493, 495, 488, 493, 508, 480, 494, 500, 493, 498, 491, 498, 490, 518, 482, 488, 492, 492, 494, 493, 494, 493, 492, 498, 495, 499, 489, 490, 495, 501, 490, 491, 497, 493, 490, 495, 492, 493, 492, 517, 478, 489, 490, 494, 490, 491, 498, 487, 489, 491, 504, 493, 491, 490, 494, 497, 490, 491, 492, 493, 502, 494, 492, 504, 491, 491, 492, 498, 497, 489, 494, 493, 493, 491, 494, 497, 492, 493, 508, 484, 497, 499, 494, 490, 492, 494, 495, 495, 493, 494, 499, 494, 500, 490, 496, 493, 493, 496, 508, 490, 491, 493, 497, 489, 493, 495, 493, 491, 489, 495, 496, 492, 493, 492, 494, 495, 492, 495, 491, 493, 491, 494, 494, 494, 493, 495, 492, 495, 493, 498, 492, 492, 503, 495, 502, 492, 493, 493, 495, 494, 494, 498, 490, 498, 498, 503, 491, 490, 491, 492, 495, 489, 495, 497, 492, 497, 497, 498, 494, 489, 493, 497, 492, 493, 493, 495, 491, 494, 502, 487, 494, 494, 503, 489, 494, 493, 495, 497, 497, 491, 493, 492, 506, 491, 492, 493, 493, 496, 492, 493, 493, 504, 494, 502, 493, 492, 489, 493, 497, 494, 494, 496, 494, 494, 495, 492, 497, 495, 493, 498, 491, 495, 498, 491, 496, 494, 493, 504, 491, 487, 495, 489, 496, 492, 494, 489, 493, 493, 495, 498, 493, 488, 495, 490, 505, 490, 497, 492, 491, 495, 494, 491, 495, 501, 503, 484, 491, 497, 490, 500, 486, 492, 493, 492, 494, 494, 492, 493, 499, 483, 496, 495, 497, 497, 501, 493, 492, 492, 493, 491, 495, 499, 492, 492, 506, 486, 490, 495, 494, 486, 496, 493, 494, 494, 489, 495, 493, 503, 488, 495, 493, 493, 498, 495, 487, 500, 493, 495, 491, 490, 493, 493, 491, 497, 494, 499, 488, 492, 492, 498, 490, 494, 494, 493, 493, 509, 489, 496, 490, 493, 492, 494, 493, 492]"
rest,"[493, 495, 495, 497, 493, 498, 497, 496, 487, 492, 495, 494, 494, 495, 487, 492, 492, 495, 504, 493, 492, 492, 494, 488, 493, 496, 491, 494, 495, 494, 495, 492, 500, 491, 498, 492, 491, 493, 493, 496, 493, 492, 496, 492, 492, 494, 499, 490, 496, 486, 494, 495, 491, 492, 494, 493, 495, 492, 491, 501, 493, 494, 492, 494, 497, 488, 493, 493, 503, 485, 492, 493, 495, 494, 490, 496, 490, 497, 495, 495, 500, 494, 491, 492, 498, 492, 494, 496, 491, 495, 491, 494, 496, 495, 501, 488, 497, 490, 493, 496, 492, 494, 493, 492, 498, 499, 490, 492, 494, 493, 493, 493, 493, 494, 493, 493, 493, 494, 493, 493, 493, 494, 493, 493, 493, 494, 493, 493, 494, 493, 494, 493, 494, 494, 494, 493, 494, 493, 494, 493, 494, 494, 493, 494, 494, 494, 493, 494, 493, 494, 494, 494, 493, 494, 494, 494, 493, 494, 494, 494, 494, 494, 494, 494, 494, 494, 494, 494, 494, 494, 494, 493, 494, 494, 494, 494, 494, 494, 494, 494, 493, 494, 494, 494, 494, 493, 494, 494, 494, 493, 494, 494, 494, 493, 494, 494, 494, 494, 494, 493, 493, 494, 493, 494, 494, 494, 494, 494, 493, 493, 493, 494, 493, 493, 493, 494, 494, 494, 494, 493, 494, 493, 494, 493, 493, 494, 493, 493, 493, 493, 494, 494, 493, 494, 493, 494, 493, 494, 493, 493, 493, 493, 493, 493, 494, 493, 494, 493, 494, 494, 494, 493, 494, 493, 494, 494, 493, 493, 493, 494, 493, 494, 493, 493, 493, 494, 493, 494, 493, 494, 493, 493, 494, 493, 494, 493, 493, 493, 493, 493, 494, 493, 493, 494, 493, 493, 493, 494, 493, 493, 493, 494, 493, 494, 493, 493, 493, 494, 493, 493, 493, 493, 494, 493, 494, 493, 494, 494, 494, 493, 494, 494, 493, 493, 493, 493, 493, 494, 493, 494, 494, 493, 493, 493, 493, 493, 494, 493, 493, 493, 494, 494, 493, 493, 494, 493, 493, 493, 493, 494, 493, 494, 493, 493, 493, 494, 493, 494, 493, 494, 493, 494, 494, 494, 493, 494, 494, 494, 494, 494, 494, 494, 494, 494, 494, 495, 494, 494, 494, 494, 494, 494, 494, 494, 494, 494, 494, 494, 493, 493, 494, 494, 494, 494, 494, 493, 494, 493, 494, 494, 494, 493, 494, 493, 494, 493, 494, 493, 493, 494, 493, 493, 492, 494, 493, 494, 493, 494, 493, 494, 494, 493, 493, 493, 493, 493, 494, 493, 494, 493, 493, 493, 493, 494, 493, 493, 493, 493, 493, 493, 493, 493, 493, 493, 493, 494, 493, 493, 493, 493, 492, 492, 494, 493, 493, 493, 493, 493, 493, 492, 493, 493, 493, 492, 493, 493, 493, 493, 492, 493, 493, 493, 493, 494, 491, 491, 493, 494, 491, 493, 493, 493, 492, 493, 493, 492, 493, 493, 493, 492, 492, 493, 493, 492, 492, 492, 493, 493, 493, 493, 492, 493, 493, 493, 492, 492, 493, 493, 492, 493, 494, 492, 493, 492, 493, 493, 493, 493, 493, 493, 493, 493, 493, 493, 492, 493, 493, 493, 493, 492, 493, 493, 493, 492, 493, 493, 492, 493, 493, 493, 493, 493, 494, 492, 493, 493, 493, 493, 493, 493, 492, 493, 492, 492, 493, 492, 492, 493, 492, 494, 492, 493, 492, 492, 493, 493, 492, 493, 493, 493, 493, 492, 492, 493, 493, 492, 492, 492, 493, 493, 492, 493, 493, 493, 492, 493, 493]"
right,"[491, 492, 493, 492, 492, 493, 493, 492, 493, 493, 493, 493, 492, 494, 492, 493, 493, 492, 492, 493, 493, 495, 491, 493, 493, 492, 493, 493, 493, 492, 493, 493, 493, 492, 494, 493, 493, 493, 493, 493, 493, 492, 494, 492, 493, 493, 493, 493, 493, 493, 492, 493, 492, 492, 494, 493, 493, 493, 493, 493, 493, 492, 492, 495, 491, 493, 493, 492, 492, 494, 493, 493, 492, 493, 493, 493, 493, 492, 493, 493, 493, 492, 493, 493, 492, 492, 493, 493, 493, 493, 493, 492, 493, 493, 493, 492, 492, 493, 493, 493, 493, 493, 493, 496, 489, 492, 492, 492, 493, 492, 493, 492, 494, 492, 492, 493, 491, 493, 493, 494, 490, 494, 494, 493, 494, 492, 491, 493, 492, 493, 493, 493, 502, 487, 499, 491, 489, 495, 489, 492, 493, 493, 493, 496, 491, 495, 498, 496, 488, 489, 493, 494, 496, 492, 492, 492, 494, 494, 495, 504, 485, 493, 500, 492, 491, 491, 491, 494, 502, 501, 485, 493, 497, 497, 482, 494, 497, 490, 498, 506, 486, 508, 485, 492, 496, 493, 485, 495, 489, 487, 494, 496, 501, 487, 501, 488, 514, 480, 495, 498, 491, 516, 479, 487, 497, 486, 506, 487, 490, 501, 512, 485, 491, 512, 481, 489, 497, 494, 493, 493, 507, 498, 485, 495, 487, 497, 495, 498, 499, 493, 483, 489, 492, 493, 496, 488, 495, 497, 494, 489, 497, 515, 486, 493, 495, 504, 479, 491, 498, 506, 497, 480, 491, 503, 489, 485, 491, 491, 492, 492, 499, 484, 494, 495, 494, 486, 494, 490, 489, 494, 493, 506, 498, 485, 509, 482, 505, 500, 487, 494, 488, 498, 492, 511, 499, 479, 489, 492, 493, 491, 493, 496, 490, 494, 494, 493, 492, 491, 503, 485, 490, 499, 487, 492, 491, 515, 476, 488, 499, 480, 490, 493, 492, 503, 494, 488, 494, 499, 487, 493, 506, 494, 489, 493, 510, 499, 484, 493, 497, 492, 492, 491, 491, 499, 508, 492, 501, 486, 489, 494, 498, 494, 489, 501, 491, 501, 501, 496, 486, 491, 494, 497, 500, 491, 489, 494, 505, 486, 492, 492, 496, 495, 488, 493, 498, 490, 498, 496, 485, 484, 496, 493, 491, 493, 502, 481, 506, 490, 490, 491, 493, 500, 490, 491, 489, 494, 496, 491, 491, 504, 490, 494, 489, 493, 492, 503, 491, 480, 489, 494, 490, 497, 488, 494, 493, 490, 493, 502, 498, 491, 491, 494, 496, 497, 489, 494, 491, 492, 491, 494, 502, 495, 494, 504, 489, 488, 495, 492, 498, 490, 495, 496, 488, 489, 494, 493, 499, 498, 488, 491, 493, 496, 491, 493, 493, 500, 488, 496, 494, 503, 491, 485, 495, 487, 492, 493, 492, 494, 490, 495, 497, 493, 496, 490, 502, 487, 496, 500, 491, 495, 488, 494, 492, 499, 486, 491, 493, 494, 493, 501, 489, 491, 495, 489, 494, 503, 490, 493, 495, 489, 492, 498, 496, 496, 491, 505, 487, 494, 493, 490, 492, 489, 499, 493, 493, 493, 490, 489, 491, 490, 494, 492, 493, 498, 492, 493, 496, 495, 504, 478, 494, 517, 489, 487, 492, 505, 490, 494, 491, 495, 489, 496, 496, 497, 493, 493, 487, 493, 498, 491, 493, 492, 496, 496, 480, 497, 492, 497, 503, 485, 491, 492, 498, 491, 492, 494, 500, 490, 492, 489, 494, 503, 493, 482, 492, 494, 491, 488, 500, 483, 491, 494, 493, 492, 491, 498, 496]"
rest,"[488, 493, 500, 511, 492, 493, 494, 498, 487, 494, 493, 494, 495, 493, 511, 494, 507, 469, 491, 498, 492, 493, 488, 495, 497, 489, 500, 489, 492, 493, 499, 492, 498, 507, 476, 498, 493, 497, 496, 495, 483, 489, 497, 490, 507, 485, 495, 493, 493, 499, 494, 501, 487, 488, 487, 493, 498, 499, 496, 496, 494, 498, 490, 492, 514, 488, 491, 510, 500, 488, 492, 501, 498, 489, 497, 493, 491, 503, 487, 492, 494, 495, 497, 497, 496, 499, 485, 492, 500, 490, 501, 487, 500, 489, 492, 497, 501, 487, 493, 492, 492, 492, 492, 502, 489, 494, 492, 493, 492, 493, 492, 493, 493, 493, 494, 493, 493, 493, 493, 493, 494, 493, 494, 494, 494, 494, 494, 493, 494, 494, 494, 494, 494, 494, 495, 494, 494, 494, 494, 494, 494, 494, 494, 494, 494, 494, 494, 494, 494, 494, 495, 494, 494, 495, 494, 494, 494, 493, 495, 494, 494, 494, 494, 495, 494, 494, 494, 494, 494, 494, 494, 494, 495, 494, 494, 494, 494, 494, 494, 494, 494, 494, 494, 494, 494, 493, 494, 494, 494, 494, 494, 494, 494, 494, 494, 494, 494, 494, 494, 494, 494, 494, 494, 494, 493, 494, 494, 494, 494, 494, 494, 493, 494, 493, 494, 493, 494, 494, 494, 494, 494, 494, 493, 494, 493, 494, 493, 493, 493, 494, 494, 493, 494, 494, 494, 494, 494, 493, 494, 493, 494, 494, 494, 493, 494, 494, 493, 494, 494, 494, 493, 494, 493, 494, 494, 494, 493, 493, 493, 494, 494, 493, 494, 494, 494, 493, 494, 493, 494, 493, 494, 493, 493, 493, 494, 494, 493, 494, 494, 494, 493, 494, 493, 494, 493, 493, 494, 493, 494, 493, 494, 493, 493, 494, 494, 493, 494, 495, 493, 493, 493, 493, 493, 494, 493, 493, 493, 494, 493, 494, 493, 493, 494, 493, 493, 493, 494, 493, 494, 493, 493, 493, 493, 493, 493, 493, 493, 493, 493, 493, 493, 493, 494, 494, 493, 494, 494, 494, 493, 494, 493, 494, 494, 493, 493, 493, 494, 493, 493, 493, 494, 493, 493, 493, 493, 493, 494, 493, 493, 493, 493, 494, 493, 493, 493, 493, 493, 493, 492, 493, 494, 493, 493, 493, 493, 493, 494, 493, 493, 493, 493, 493, 493, 493, 493, 492, 493, 493, 492, 493, 493, 493, 493, 493, 493, 493, 493, 493, 493, 493, 494, 493, 493, 492, 493, 493, 493, 492, 493, 493, 493, 493, 493, 493, 493, 493, 493, 493, 493, 494, 493, 493, 493, 493, 493, 493, 492, 493, 494, 493, 493, 493, 493, 493, 493, 493, 493, 493, 493, 493, 493, 493, 493, 493, 493, 493, 493, 493, 493, 494, 493, 493, 494, 493, 493, 493, 493, 493, 493, 493, 493, 493, 493, 493, 493, 492, 493, 493, 493, 493, 493, 493, 493, 494, 493, 493, 493, 493, 493, 492, 492, 493, 493, 493, 493, 492, 493, 493, 494, 493, 493, 493, 493, 493, 493, 493, 493, 493, 493, 493, 493, 493, 493, 493, 493, 494, 492, 493, 493, 493, 494, 493, 493, 493, 493, 492, 493, 493, 493, 492, 493, 493, 493, 493, 493, 493, 492, 493, 493, 493, 493, 493, 493, 493, 494, 493, 493, 493, 493, 493, 493, 493, 493, 493, 494, 493, 493, 492, 493, 493, 493, 493, 493, 493, 493, 493, 492, 493, 493, 494, 493, 493, 493, 493, 493, 493, 493, 492, 494, 493, 493, 493, 493, 493, 494, 492, 493]"
right,"[493, 493, 493, 492, 493, 492, 493, 493, 493, 492, 493, 493, 493, 493, 493, 493, 494, 493, 493, 492, 494, 494, 493, 493, 493, 494, 493, 494, 493, 493, 493, 493, 493, 493, 492, 493, 493, 493, 493, 493, 494, 493, 493, 493, 493, 493, 493, 492, 492, 494, 493, 492, 493, 493, 493, 494, 492, 493, 493, 494, 493, 493, 493, 493, 493, 493, 493, 493, 493, 493, 493, 493, 493, 494, 493, 493, 493, 493, 493, 493, 492, 494, 493, 494, 493, 494, 493, 493, 493, 493, 493, 493, 492, 494, 493, 493, 493, 493, 494, 493, 493, 493, 493, 494, 493, 493, 492, 494, 498, 500, 498, 489, 490, 493, 492, 492, 493, 493, 493, 493, 493, 493, 493, 493, 493, 494, 491, 494, 496, 493, 496, 492, 496, 493, 493, 493, 493, 492, 493, 493, 493, 493, 492, 494, 493, 491, 495, 494, 495, 494, 495, 493, 489, 493, 492, 494, 494, 493, 494, 494, 492, 493, 493, 493, 494, 494, 493, 496, 490, 495, 495, 495, 499, 495, 492, 491, 495, 492, 498, 489, 494, 493, 494, 493, 494, 493, 498, 493, 491, 494, 497, 495, 495, 491, 493, 496, 493, 491, 494, 491, 493, 495, 498, 493, 497, 494, 498, 498, 494, 496, 497, 490, 493, 495, 493, 492, 497, 490, 492, 493, 490, 498, 487, 492, 496, 496, 487, 495, 513, 486, 489, 494, 499, 491, 493, 497, 494, 494, 496, 502, 501, 484, 498, 494, 490, 503, 476, 511, 487, 490, 490, 499, 495, 487, 501, 494, 491, 489, 492, 501, 489, 502, 482, 506, 499, 495, 496, 498, 486, 497, 494, 490, 489, 491, 494, 502, 510, 478, 487, 497, 499, 490, 491, 497, 495, 485, 495, 512, 484, 510, 484, 493, 494, 496, 488, 497, 485, 495, 491, 501, 492, 492, 500, 490, 490, 495, 498, 496, 493, 490, 494, 493, 496, 492, 494, 495, 492, 496, 502, 486, 494, 492, 491, 494, 497, 493, 493, 495, 494, 491, 505, 485, 501, 495, 494, 490, 495, 500, 489, 492, 495, 509, 482, 492, 499, 496, 492, 501, 490, 497, 491, 493, 494, 493, 494, 497, 494, 493, 492, 503, 494, 496, 491, 490, 489, 494, 494, 495, 493, 494, 492, 495, 496, 489, 495, 489, 493, 494, 494, 493, 492, 494, 494, 499, 490, 493, 497, 494, 492, 503, 486, 494, 492, 494, 494, 502, 490, 492, 490, 495, 491, 498, 489, 495, 494, 495, 489, 503, 487, 493, 495, 501, 491, 492, 497, 488, 493, 499, 495, 491, 497, 492, 493, 494, 500, 494, 493, 496, 493, 493, 493, 498, 490, 491, 491, 493, 495, 499, 489, 493, 494, 493, 496, 493, 492, 495, 492, 501, 492, 494, 492, 495, 493, 498, 492, 510, 491, 492, 491, 501, 491, 492, 493, 492, 489, 493, 495, 494, 495, 495, 497, 492, 495, 491, 494, 493, 493, 500, 491, 498, 490, 494, 491, 495, 494, 492, 494, 493, 491, 494, 494, 495, 498, 490, 494, 502, 488, 498, 493, 492, 493, 494, 493, 497, 498, 491, 492, 492, 492, 493, 491, 494, 494, 496, 492, 493, 496, 496, 494, 490, 492, 492, 499, 491, 489, 495, 492, 495, 495, 490, 494, 493, 504, 491, 502, 492, 488, 495, 494, 493, 494, 490, 494, 495, 496, 493, 498, 492, 494, 493, 494, 490, 493, 495, 491, 493, 494, 499, 490, 491, 489, 492, 495, 496, 494, 493, 491, 496, 503, 490, 492, 491, 495, 494, 494, 494, 496]"
rest,"[497, 490, 488, 497, 493, 497, 486, 492, 493, 494, 493, 493, 497, 495, 494, 491, 494, 493, 498, 493, 493, 489, 490, 494, 494, 495, 493, 496, 494, 493, 496, 494, 499, 493, 492, 493, 494, 493, 496, 493, 493, 489, 492, 493, 494, 492, 499, 494, 494, 492, 492, 495, 500, 491, 493, 499, 487, 489, 493, 493, 498, 492, 493, 496, 495, 491, 491, 493, 493, 497, 491, 493, 493, 495, 497, 496, 491, 493, 492, 491, 493, 491, 493, 495, 491, 494, 493, 498, 495, 493, 496, 491, 493, 491, 492, 494, 491, 499, 491, 494, 494, 493, 496, 491, 495, 489, 492, 498, 492, 493, 492, 502, 492, 493, 492, 493, 493, 493, 492, 494, 493, 495, 493, 493, 494, 493, 494, 493, 494, 494, 493, 493, 494, 493, 494, 493, 493, 493, 494, 494, 493, 494, 493, 494, 493, 494, 493, 494, 494, 493, 493, 494, 494, 493, 494, 493, 494, 493, 494, 493, 493, 493, 494, 494, 494, 494, 493, 494, 493, 494, 494, 494, 494, 494, 493, 494, 494, 494, 494, 494, 494, 493, 494, 493, 494, 493, 494, 494, 494, 494, 494, 493, 494, 494, 493, 493, 494, 494, 494, 494, 493, 495, 494, 494, 493, 494, 494, 493, 494, 493, 494, 493, 494, 493, 494, 493, 493, 493, 494, 493, 493, 493, 493, 493, 493, 493, 493, 494, 493, 493, 494, 494, 493, 493, 493, 493, 494, 493, 494, 493, 494, 494, 494, 493, 494, 493, 494, 493, 493, 493, 494, 494, 493, 494, 493, 494, 493, 494, 493, 493, 493, 493, 493, 493, 494, 493, 494, 493, 494, 493, 494, 493, 494, 493, 494, 493, 493, 493, 493, 494, 493, 493, 493, 493, 493, 494, 493, 493, 494, 494, 493, 493, 493, 493, 494, 493, 493, 493, 493, 493, 493, 493, 493, 493, 493, 493, 493, 493, 493, 494, 493, 493, 494, 494, 493, 494, 492, 493, 493, 493, 493, 493, 494, 493, 494, 493, 493, 493, 494, 493, 493, 493, 493, 494, 493, 493, 493, 494, 493, 494, 493, 494, 493, 494, 493, 493, 494, 493, 493, 493, 493, 493, 494, 493, 493, 493, 494, 493, 493, 493, 493, 493, 493, 494, 493, 493, 493, 493, 493, 493, 493, 493, 493, 493, 492, 493, 493, 493, 494, 493, 493, 493, 493, 493, 493, 493, 494, 493, 493, 493, 493, 494, 493, 493, 493, 494, 493, 493, 493, 494, 493, 493, 493, 493, 494, 493, 493, 493, 493, 493, 493, 493, 493, 492, 493, 493, 493, 493, 492, 493, 493, 493, 492, 493, 493, 493, 493, 493, 493, 493, 493, 493, 493, 493, 493, 492, 493, 492, 493, 493, 493, 492, 493, 493, 493, 493, 493, 492, 493, 493, 493, 493, 493, 494, 493, 493, 493, 493, 493, 493, 493, 493, 494, 493, 493, 493, 493, 493, 493, 492, 493, 493, 493, 493, 493, 494, 493, 493, 493, 493, 493, 493, 493, 493, 493, 493, 494, 493, 493, 492, 494, 493, 493, 492, 493, 493, 493, 493, 493, 492, 493, 492, 493, 493, 493, 492, 493, 494, 492, 493, 493, 493, 493, 493, 492, 493, 493, 493, 493, 492, 493, 493, 493, 492, 493, 493, 493, 493, 493, 492, 494, 493, 493, 493, 493, 493, 493, 493, 492, 493, 492, 493, 493, 492, 493, 493, 493, 492, 493, 493, 493, 493, 493, 492, 493, 493, 493, 493, 493, 493, 493, 493, 492, 493, 493, 493, 492, 493, 492, 493, 493, 493, 493, 493, 493, 493, 493]"
right,"[493, 493, 493, 492, 493, 492, 493, 493, 492, 493, 493, 493, 493, 493, 493, 493, 494, 493, 493, 493, 493, 493, 493, 493, 492, 493, 493, 494, 493, 493, 493, 493, 493, 493, 492, 493, 493, 492, 493, 492, 493, 493, 494, 493, 493, 493, 493, 493, 493, 494, 493, 493, 493, 493, 493, 494, 493, 493, 492, 493, 493, 494, 493, 493, 493, 493, 493, 493, 493, 492, 492, 493, 493, 493, 494, 492, 493, 493, 493, 493, 493, 493, 493, 494, 493, 493, 493, 493, 493, 493, 493, 493, 494, 493, 493, 492, 494, 492, 498, 492, 494, 492, 493, 493, 494, 493, 494, 495, 496, 493, 492, 495, 490, 493, 492, 493, 492, 493, 494, 492, 493, 493, 492, 492, 494, 494, 491, 494, 490, 494, 497, 492, 495, 491, 493, 493, 493, 493, 494, 492, 492, 495, 495, 492, 493, 493, 494, 493, 493, 493, 495, 494, 495, 495, 492, 494, 492, 493, 497, 488, 494, 493, 494, 493, 493, 494, 497, 492, 497, 491, 492, 496, 497, 493, 496, 494, 494, 493, 492, 496, 494, 492, 491, 492, 494, 491, 496, 498, 489, 493, 496, 495, 492, 498, 492, 499, 491, 493, 494, 493, 495, 501, 493, 496, 496, 490, 504, 501, 486, 500, 496, 492, 511, 488, 497, 489, 493, 498, 490, 501, 502, 492, 495, 489, 501, 493, 511, 486, 499, 498, 496, 490, 498, 489, 494, 488, 497, 491, 508, 492, 488, 506, 494, 488, 509, 502, 485, 494, 493, 494, 492, 508, 478, 485, 503, 495, 495, 489, 513, 485, 484, 493, 490, 509, 489, 499, 481, 494, 479, 490, 506, 492, 499, 489, 487, 493, 519, 489, 491, 495, 483, 507, 483, 492, 495, 494, 494, 504, 498, 493, 492, 492, 512, 462, 492, 495, 498, 481, 516, 482, 489, 503, 492, 495, 494, 491, 491, 496, 510, 492, 496, 495, 495, 496, 488, 496, 523, 480, 499, 496, 503, 487, 488, 492, 493, 499, 493, 491, 506, 490, 499, 492, 506, 503, 499, 491, 491, 495, 490, 490, 491, 494, 493, 496, 494, 509, 502, 492, 496, 500, 504, 482, 498, 487, 498, 499, 514, 486, 502, 498, 491, 482, 491, 491, 492, 502, 493, 491, 495, 495, 500, 487, 502, 490, 495, 489, 489, 490, 502, 487, 496, 520, 481, 488, 493, 491, 502, 477, 492, 488, 493, 493, 492, 494, 492, 500, 500, 499, 484, 482, 495, 507, 486, 491, 496, 493, 518, 486, 498, 489, 496, 486, 494, 492, 496, 493, 491, 507, 490, 495, 480, 493, 502, 498, 492, 494, 496, 494, 496, 493, 492, 499, 488, 497, 497, 491, 496, 493, 491, 496, 492, 493, 494, 496, 491, 504, 491, 493, 494, 491, 494, 486, 495, 492, 500, 478, 490, 494, 500, 492, 492, 497, 494, 490, 496, 491, 495, 488, 490, 494, 494, 495, 499, 487, 495, 492, 495, 496, 496, 498, 492, 490, 486, 488, 496, 493, 499, 494, 490, 492, 492, 500, 498, 493, 494, 499, 498, 490, 493, 491, 492, 490, 499, 491, 502, 484, 492, 490, 494, 493, 494, 498, 492, 490, 499, 487, 490, 493, 494, 499, 502, 490, 496, 493, 493, 493, 492, 498, 485, 495, 493, 502, 490, 500, 495, 488, 492, 490, 492, 500, 492, 491, 492, 499, 496, 493, 493, 493, 496, 490, 504, 492, 500, 490, 489, 495, 492, 493, 489, 492, 493, 497, 494, 496, 493, 494, 499, 495, 496, 499, 493, 495, 491, 493, 494, 490]"
rest,"[495, 494, 494, 492, 486, 492, 494, 499, 496, 492, 496, 495, 493, 500, 491, 494, 495, 495, 489, 492, 495, 493, 493, 494, 501, 492, 489, 493, 489, 491, 498, 495, 495, 492, 495, 495, 494, 492, 493, 497, 498, 491, 492, 494, 488, 494, 496, 492, 491, 498, 491, 496, 494, 491, 492, 499, 489, 489, 492, 496, 492, 500, 492, 492, 494, 494, 488, 493, 493, 493, 492, 493, 493, 498, 492, 497, 491, 497, 493, 493, 502, 492, 495, 485, 491, 492, 497, 494, 495, 488, 500, 493, 492, 493, 492, 500, 487, 498, 490, 493, 493, 493, 492, 496, 490, 491, 500, 495, 501, 487, 486, 495, 493, 493, 493, 495, 494, 491, 491, 493, 499, 487, 493, 494, 497, 493, 493, 493, 499, 494, 496, 491, 493, 492, 493, 493, 494, 493, 495, 493, 494, 493, 493, 493, 493, 493, 493, 493, 493, 495, 493, 494, 493, 494, 493, 494, 493, 494, 494, 493, 493, 494, 493, 494, 494, 493, 493, 493, 494, 494, 494, 493, 494, 493, 494, 493, 493, 493, 494, 494, 493, 493, 493, 494, 493, 494, 493, 494, 494, 494, 493, 493, 494, 493, 493, 493, 494, 492, 495, 493, 494, 493, 493, 493, 493, 493, 493, 494, 493, 494, 493, 493, 493, 493, 493, 493, 493, 493, 493, 493, 493, 493, 494, 493, 494, 493, 493, 493, 493, 493, 493, 493, 494, 493, 493, 493, 493, 493, 493, 493, 493, 494, 493, 493, 493, 493, 493, 494, 493, 493, 493, 493, 494, 493, 494, 493, 494, 493, 493, 493, 493, 493, 493, 493, 493, 494, 493, 494, 493, 493, 493, 493, 493, 493, 493, 493, 494, 493, 493, 493, 494, 493, 493, 493, 493, 493, 494, 493, 493, 493, 493, 494, 493, 493, 493, 494, 493, 494, 493, 493, 493, 494, 493, 493, 494, 493, 493, 493, 494, 493, 493, 493, 494, 493, 494, 494, 493, 493, 493, 493, 493, 494, 493, 493, 493, 494, 493, 493, 494, 493, 493, 493, 493, 493, 493, 493, 494, 493, 494, 493, 494, 493, 493, 493, 494, 493, 493, 494, 493, 494, 493, 493, 493, 493, 493, 493, 493, 493, 493, 493, 494, 493, 494, 493, 493, 493, 494, 493, 493, 493, 494, 493, 494, 493, 493, 493, 494, 493, 493, 494, 493, 494, 493, 493, 493, 493, 494, 494, 493, 493, 493, 493, 493, 493, 494, 493, 493, 493, 494, 493, 493, 493, 493, 493, 493, 494, 493, 494, 493, 494, 494, 493, 493, 494, 493, 493, 493, 493, 493, 493, 494, 493, 493, 493, 493, 493, 494, 493, 493, 493, 494, 493, 493, 493, 493, 494, 493, 494, 493, 494, 493, 493, 493, 493, 494, 493, 494, 493, 493, 493, 494, 493, 493, 493, 494, 494, 494, 494, 493, 494, 493, 493, 493, 494, 493, 494, 493, 494, 494, 493, 492, 493, 493, 493, 493, 493, 494, 493, 494, 493, 494, 493, 493, 494, 493, 493, 493, 494, 493, 494, 493, 494, 494, 494, 493, 494, 493, 494, 493, 493, 493, 493, 494, 493, 494, 493, 494, 493, 494, 493, 494, 493, 494, 493, 494, 494, 493, 494, 493, 494, 493, 493, 493, 493, 492, 493, 494, 493, 493, 493, 493, 493, 494, 493, 494, 493, 494, 493, 493, 494, 493, 493, 493, 493, 493, 496, 493, 493, 493, 494, 493, 493, 493, 493, 493, 493, 493, 493, 493, 493, 493, 493, 494, 493, 494, 493, 493, 493, 493, 493, 494, 493, 492, 494, 493, 494, 493]"
right,"[494, 493, 493, 494, 493, 493, 493, 494, 493, 493, 493, 493, 493, 494, 493, 493, 493, 494, 493, 493, 493, 493, 493, 493, 493, 493, 493, 493, 494, 493, 493, 493, 494, 492, 493, 493, 493, 493, 493, 494, 493, 493, 493, 494, 493, 493, 493, 493, 493, 493, 493, 493, 493, 493, 493, 493, 494, 493, 493, 493, 493, 493, 493, 493, 493, 494, 492, 494, 492, 493, 493, 494, 492, 493, 493, 493, 493, 493, 494, 493, 494, 493, 493, 493, 493, 493, 494, 492, 492, 494, 493, 493, 493, 493, 493, 493, 493, 494, 494, 493, 497, 494, 491, 492, 494, 493, 494, 492, 492, 494, 493, 491, 493, 493, 494, 493, 493, 494, 493, 493, 493, 494, 494, 489, 493, 494, 490, 494, 492, 494, 494, 495, 492, 493, 493, 496, 492, 493, 493, 492, 492, 493, 494, 494, 488, 494, 499, 494, 493, 492, 494, 495, 493, 494, 493, 494, 497, 495, 493, 494, 494, 495, 495, 498, 489, 495, 491, 499, 495, 490, 499, 492, 498, 489, 493, 496, 493, 494, 494, 491, 495, 489, 499, 494, 491, 494, 490, 499, 490, 498, 505, 486, 492, 493, 493, 498, 496, 493, 491, 497, 495, 492, 499, 496, 491, 488, 504, 491, 498, 495, 489, 493, 510, 488, 494, 498, 493, 495, 488, 498, 492, 485, 499, 491, 493, 502, 495, 491, 491, 492, 492, 491, 493, 494, 488, 508, 484, 492, 490, 500, 489, 490, 495, 491, 491, 495, 492, 495, 489, 500, 495, 491, 495, 490, 494, 495, 492, 490, 493, 495, 496, 492, 489, 492, 494, 498, 495, 492, 491, 492, 492, 487, 492, 496, 500, 485, 494, 494, 496, 496, 490, 493, 494, 495, 494, 495, 489, 493, 494, 497, 491, 492, 492, 494, 492, 498, 493, 494, 494, 494, 497, 488, 504, 496, 499, 489, 491, 489, 493, 493, 494, 495, 493, 494, 494, 494, 491, 493, 495, 491, 498, 492, 496, 491, 492, 492, 490, 493, 495, 493, 494, 490, 493, 500, 496, 494, 490, 495, 493, 492, 506, 488, 494, 495, 494, 491, 492, 491, 495, 498, 492, 491, 493, 492, 489, 494, 494, 498, 486, 495, 492, 495, 494, 498, 496, 495, 495, 494, 493, 497, 493, 495, 492, 492, 489, 494, 495, 492, 505, 493, 490, 488, 491, 496, 493, 493, 494, 493, 500, 494, 493, 497, 491, 493, 494, 502, 494, 489, 505, 493, 494, 494, 492, 499, 489, 493, 494, 492, 496, 494, 489, 493, 495, 494, 495, 493, 495, 492, 493, 494, 492, 504, 495, 493, 496, 488, 492, 496, 492, 493, 493, 497, 490, 493, 493, 494, 492, 497, 493, 493, 491, 493, 493, 491, 496, 496, 493, 494, 497, 495, 494, 498, 484, 494, 498, 493, 489, 496, 496, 494, 492, 494, 493, 491, 492, 496, 494, 493, 495, 494, 498, 491, 496, 498, 503, 490, 497, 491, 492, 492, 495, 493, 491, 493, 492, 495, 494, 496, 493, 495, 494, 491, 495, 498, 491, 492, 495, 493, 493, 488, 494, 493, 492, 493, 496, 497, 498, 492, 490, 485, 496, 500, 487, 493, 493, 496, 492, 495, 493, 491, 493, 493, 503, 497, 495, 497, 496, 491, 493, 492, 493, 492, 494, 492, 494, 493, 494, 491, 493, 496, 500, 496, 495, 492, 496, 494, 493, 493, 499, 489, 493, 495, 494, 492, 492, 493, 494, 494, 494, 491, 495, 500, 498, 492, 496, 494, 493, 494, 495, 492, 493, 494, 492, 494, 495, 491, 493]"
rest,"[497, 491, 493, 495, 492, 495, 495, 493, 492, 493, 493, 491, 496, 489, 494, 493, 493, 497, 493, 490, 493, 499, 486, 493, 488, 494, 493, 492, 497, 492, 494, 490, 498, 494, 487, 491, 492, 497, 493, 493, 494, 490, 496, 492, 493, 492, 493, 492, 504, 492, 497, 492, 494, 493, 495, 489, 493, 495, 496, 492, 492, 496, 493, 495, 493, 493, 496, 493, 494, 497, 482, 493, 491, 496, 493, 493, 499, 496, 497, 493, 494, 496, 493, 494, 494, 487, 494, 494, 490, 495, 493, 493, 498, 493, 492, 499, 494, 492, 494, 496, 492, 502, 489, 491, 494, 497, 493, 492, 497, 493, 494, 495, 493, 494, 493, 495, 495, 494, 493, 495, 490, 493, 494, 493, 494, 494, 499, 494, 494, 493, 492, 494, 494, 493, 493, 494, 500, 485, 493, 493, 493, 494, 492, 493, 495, 495, 493, 495, 494, 493, 496, 487, 493, 493, 495, 494, 493, 493, 494, 493, 494, 494, 494, 493, 494, 494, 493, 494, 493, 494, 494, 497, 496, 493, 492, 503, 492, 493, 494, 501, 492, 493, 493, 492, 493, 492, 493, 493, 494, 493, 494, 494, 496, 493, 493, 492, 493, 493, 493, 493, 493, 494, 493, 493, 497, 488, 492, 490, 493, 494, 492, 493, 494, 493, 494, 493, 493, 494, 494, 493, 494, 493, 494, 493, 493, 493, 493, 494, 493, 493, 493, 493, 493, 494, 493, 493, 493, 494, 493, 493, 493, 494, 493, 493, 494, 493, 494, 493, 493, 493, 493, 494, 493, 493, 494, 493, 493, 494, 493, 494, 493, 494, 493, 493, 494, 493, 493, 493, 493, 493, 494, 493, 494, 493, 493, 494, 494, 494, 493, 493, 493, 494, 493, 493, 493, 494, 493, 494, 493, 492, 493, 493, 493, 493, 493, 493, 493, 493, 493, 493, 494, 493, 493, 493, 494, 493, 493, 493, 493, 493, 493, 494, 493, 493, 493, 494, 493, 494, 493, 493, 493, 493, 493, 493, 493, 493, 494, 493, 493, 493, 494, 492, 493, 493, 493, 493, 493, 493, 493, 494, 493, 493, 493, 494, 493, 493, 494, 493, 493, 493, 493, 493, 494, 493, 494, 493, 493, 493, 494, 493, 493, 493, 493, 493, 493, 493, 493, 494, 493, 493, 493, 494, 493, 494, 493, 493, 493, 494, 494, 493, 493, 493, 494, 493, 493, 493, 493, 493, 494, 493, 493, 494, 493, 494, 493, 493, 493, 494, 493, 493, 493, 494, 493, 494, 493, 493, 493, 494, 493, 493, 494, 493, 494, 493, 494, 494, 494, 493, 493, 493, 493, 493, 493, 493, 494, 492, 493, 493, 493, 493, 493, 493, 493, 493, 493, 493, 493, 493, 494, 494, 494, 493, 493, 493, 493, 493, 493, 493, 493, 494, 493, 494, 493, 494, 493, 494, 493, 493, 493, 493, 495, 492, 493, 493, 494, 493, 493, 493, 494, 493, 494, 493, 493, 494, 493, 493, 493, 493, 493, 494, 493, 493, 493, 494, 493, 493, 493, 493, 493, 493, 493, 493, 493, 493, 494, 493, 494, 493, 494, 493, 493, 493, 494, 493, 493, 494, 493, 494, 493, 494, 493, 494, 494, 493, 494, 493, 493, 493, 493, 494, 493, 493, 494, 493, 494, 492, 493, 493, 494, 493, 493, 494, 495, 493, 493, 494, 493, 494, 493, 494, 493, 494, 493, 493, 493, 493, 495, 491, 493, 493, 494, 493, 494, 493, 493, 494, 494, 493, 493, 493, 493, 494, 493, 494, 493, 493, 493, 494, 493, 493, 493, 493, 493, 494, 493, 493, 494]"
right,"[493, 494, 494, 493, 493, 494, 493, 494, 494, 495, 493, 493, 494, 493, 493, 494, 494, 493, 494, 493, 494, 493, 494, 494, 493, 494, 494, 494, 493, 494, 493, 494, 493, 493, 494, 493, 495, 493, 493, 493, 494, 493, 494, 493, 494, 494, 494, 494, 494, 494, 493, 494, 493, 494, 494, 494, 493, 494, 493, 494, 494, 494, 494, 494, 494, 494, 494, 494, 494, 494, 494, 493, 494, 494, 494, 493, 494, 493, 494, 494, 494, 494, 494, 494, 494, 494, 493, 494, 494, 494, 493, 494, 494, 494, 494, 494, 494, 494, 494, 494, 494, 493, 493, 493, 494, 495, 490, 494, 494, 494, 492, 498, 494, 494, 494, 499, 487, 493, 494, 493, 493, 494, 494, 494, 494, 495, 496, 493, 495, 493, 497, 492, 495, 493, 497, 495, 492, 492, 494, 493, 495, 491, 495, 493, 493, 494, 495, 495, 493, 494, 501, 495, 496, 495, 495, 495, 497, 496, 494, 496, 492, 493, 501, 489, 493, 497, 492, 493, 500, 494, 499, 496, 493, 493, 495, 492, 495, 492, 495, 493, 494, 492, 499, 494, 497, 491, 496, 487, 499, 492, 496, 494, 493, 491, 511, 490, 492, 495, 494, 502, 490, 504, 490, 493, 494, 493, 495, 504, 486, 494, 500, 492, 513, 478, 501, 491, 495, 502, 482, 493, 495, 516, 488, 500, 497, 508, 481, 489, 491, 501, 491, 495, 504, 494, 487, 489, 488, 492, 501, 491, 487, 491, 490, 494, 505, 496, 497, 513, 457, 487, 491, 492, 494, 502, 486, 492, 493, 491, 492, 485, 494, 495, 495, 509, 486, 487, 493, 493, 487, 522, 491, 495, 495, 494, 490, 495, 495, 487, 494, 499, 492, 494, 507, 490, 490, 494, 492, 504, 490, 491, 491, 502, 501, 484, 489, 498, 491, 494, 491, 491, 494, 508, 495, 495, 496, 494, 498, 491, 497, 493, 492, 502, 489, 490, 504, 497, 492, 489, 499, 488, 496, 497, 491, 492, 492, 515, 493, 489, 496, 490, 494, 493, 499, 502, 493, 492, 488, 527, 465, 489, 493, 500, 488, 493, 496, 493, 492, 492, 501, 494, 496, 490, 495, 492, 493, 497, 489, 492, 498, 497, 500, 491, 490, 493, 496, 491, 490, 495, 493, 496, 502, 496, 492, 490, 491, 493, 495, 500, 493, 498, 495, 504, 486, 492, 493, 494, 499, 491, 500, 492, 496, 494, 492, 497, 497, 491, 486, 494, 495, 491, 495, 494, 489, 491, 499, 489, 497, 504, 485, 495, 494, 491, 495, 494, 492, 495, 504, 489, 500, 497, 490, 493, 497, 492, 491, 490, 495, 498, 492, 495, 490, 498, 496, 494, 496, 492, 494, 492, 492, 494, 496, 494, 493, 498, 483, 492, 493, 494, 490, 495, 492, 495, 490, 492, 496, 499, 510, 489, 491, 491, 496, 495, 493, 492, 493, 495, 491, 493, 496, 498, 489, 493, 494, 493, 502, 490, 492, 492, 495, 494, 494, 492, 495, 493, 497, 493, 497, 493, 487, 492, 492, 493, 495, 493, 494, 492, 493, 496, 496, 492, 491, 493, 495, 492, 493, 493, 494, 500, 492, 493, 494, 491, 494, 498, 481, 495, 493, 500, 488, 492, 492, 492, 493, 494, 495, 493, 494, 492, 496, 496, 485, 493, 499, 500, 491, 491, 496, 491, 493, 493, 494, 496, 491, 492, 492, 492, 494, 490, 494, 494, 493, 496, 496, 497, 489, 492, 492, 493, 492, 493, 495, 493, 501, 492, 490, 495, 497, 491, 492, 495, 496, 495, 492, 491, 492, 495]"
rest,"[498, 490, 493, 491, 496, 488, 491, 494, 494, 492, 492, 494, 498, 493, 486, 492, 493, 498, 499, 490, 495, 492, 500, 489, 494, 493, 491, 495, 491, 491, 493, 492, 492, 491, 496, 488, 492, 495, 493, 494, 491, 495, 491, 493, 494, 492, 494, 485, 492, 495, 492, 490, 494, 493, 498, 487, 495, 493, 493, 494, 495, 502, 492, 493, 493, 495, 501, 488, 489, 499, 488, 493, 494, 493, 492, 497, 492, 500, 492, 496, 492, 494, 490, 493, 492, 496, 490, 493, 491, 497, 496, 494, 490, 498, 494, 491, 494, 489, 490, 492, 493, 492, 494, 493, 493, 493, 494, 494, 493, 493, 492, 493, 493, 494, 493, 493, 493, 493, 493, 494, 493, 493, 493, 493, 493, 493, 493, 493, 494, 493, 494, 494, 494, 493, 494, 493, 493, 493, 493, 493, 493, 494, 493, 494, 493, 494, 493, 493, 494, 494, 493, 494, 493, 493, 493, 493, 494, 493, 493, 493, 494, 493, 494, 493, 493, 494, 493, 493, 493, 494, 493, 494, 493, 493, 493, 493, 493, 493, 493, 493, 493, 493, 493, 493, 493, 493, 494, 493, 493, 493, 493, 493, 493, 493, 493, 493, 493, 493, 493, 493, 493, 493, 493, 493, 494, 493, 493, 493, 493, 493, 493, 493, 493, 493, 494, 493, 493, 493, 493, 493, 493, 493, 493, 494, 493, 493, 492, 493, 493, 493, 493, 493, 492, 493, 493, 493, 493, 493, 493, 493, 493, 493, 493, 493, 493, 492, 493, 494, 493, 493, 493, 493, 493, 493, 492, 493, 492, 493, 493, 493, 492, 493, 493, 493, 493, 492, 492, 493, 493, 493, 493, 493, 493, 492, 493, 493, 493, 493, 493, 493, 492, 493, 493, 493, 492, 493, 493, 493, 493, 493, 492, 493, 493, 492, 493, 493, 493, 493, 493, 492, 493, 493, 493, 493, 493, 494, 493, 493, 493, 493, 493, 493, 493, 493, 492, 493, 493, 493, 492, 492, 493, 493, 493, 493, 493, 493, 493, 493, 493, 494, 493, 493, 493, 493, 493, 492, 493, 493, 492, 493, 493, 493, 493, 493, 493, 493, 493, 493, 493, 493, 493, 493, 494, 493, 494, 493, 493, 493, 494, 493, 493, 494, 493, 494, 493, 494, 493, 493, 494, 494, 493, 494, 493, 494, 494, 494, 494, 494, 494, 494, 494, 494, 494, 494, 494, 494, 494, 495, 494, 494, 494, 494, 494, 494, 493, 494, 494, 494, 493, 493, 493, 492, 493, 492, 493, 492, 492, 492, 492, 492, 492, 492, 492, 492, 492, 492, 492, 493, 492, 492, 492, 492, 492, 493, 492, 492, 493, 492, 492, 492, 492, 492, 493, 492, 493, 492, 493, 492, 493, 492, 492, 493, 493, 492, 492, 493, 493, 493, 492, 493, 493, 493, 493, 493, 493, 493, 493, 493, 494, 493, 494, 493, 493, 493, 493, 493, 493, 493, 493, 493, 493, 493, 493, 493, 493, 494, 493, 494, 493, 493, 493, 493, 493, 493, 494, 493, 493, 493, 493, 493, 494, 493, 493, 493, 493, 493, 493, 493, 493, 493, 493, 493, 493, 494, 493, 493, 493, 493, 494, 493, 493, 493, 493, 493, 493, 493, 493, 493, 494, 493, 494, 493, 493, 493, 493, 493, 493, 494, 493, 494, 493, 494, 494, 494, 493, 494, 493, 493, 494, 493, 493, 493, 494, 493, 494, 493, 493, 493, 494, 493, 493, 493, 493, 494, 493, 493, 493, 494, 493, 494, 493, 493, 494, 494, 493, 493, 494, 493, 493, 493, 494, 493, 494, 493, 493, 493, 494]"
right,"[493, 493, 493, 493, 493, 493, 494, 493, 494, 493, 494, 493, 493, 494, 494, 493, 493, 493, 493, 493, 493, 493, 495, 493, 493, 494, 493, 492, 493, 493, 493, 493, 493, 493, 494, 493, 493, 493, 494, 493, 493, 493, 493, 494, 494, 493, 493, 494, 493, 493, 493, 493, 493, 493, 493, 493, 493, 493, 494, 493, 493, 493, 494, 493, 494, 493, 493, 493, 493, 493, 493, 494, 493, 493, 493, 493, 493, 494, 493, 494, 493, 494, 493, 493, 493, 493, 493, 493, 493, 493, 493, 493, 493, 493, 493, 494, 494, 493, 493, 494, 490, 495, 494, 491, 492, 494, 492, 495, 492, 492, 493, 494, 492, 492, 493, 493, 493, 493, 493, 493, 493, 493, 494, 492, 493, 494, 498, 496, 494, 494, 491, 497, 491, 495, 491, 494, 497, 487, 503, 506, 487, 488, 498, 499, 494, 499, 494, 495, 489, 498, 508, 498, 486, 505, 484, 492, 495, 489, 504, 484, 515, 487, 494, 492, 539, 469, 505, 482, 488, 489, 500, 491, 494, 502, 497, 493, 495, 478, 498, 501, 495, 493, 498, 497, 483, 494, 498, 477, 496, 492, 485, 499, 487, 507, 487, 492, 502, 491, 489, 516, 480, 486, 509, 517, 481, 480, 494, 509, 485, 494, 494, 487, 477, 502, 500, 506, 483, 489, 488, 508, 505, 485, 487, 498, 480, 493, 489, 503, 492, 491, 512, 496, 498, 478, 495, 491, 496, 494, 498, 489, 501, 495, 509, 474, 491, 495, 491, 500, 490, 492, 512, 485, 497, 494, 503, 476, 492, 498, 487, 505, 498, 484, 496, 506, 497, 491, 493, 486, 497, 515, 485, 488, 493, 497, 480, 499, 490, 498, 492, 501, 487, 495, 508, 489, 493, 490, 495, 492, 484, 491, 509, 493, 485, 490, 498, 506, 508, 485, 518, 486, 492, 501, 484, 500, 509, 502, 487, 513, 486, 492, 504, 491, 503, 497, 468, 491, 495, 495, 479, 494, 486, 513, 479, 500, 495, 489, 486, 487, 508, 508, 477, 493, 489, 501, 497, 483, 498, 494, 522, 491, 488, 509, 487, 499, 499, 497, 500, 504, 487, 498, 482, 496, 498, 497, 493, 491, 492, 493, 498, 489, 495, 488, 499, 513, 508, 506, 495, 502, 487, 498, 487, 493, 499, 492, 488, 529, 486, 497, 492, 492, 492, 488, 490, 507, 481, 502, 521, 480, 489, 498, 502, 490, 490, 492, 503, 499, 488, 504, 480, 488, 489, 494, 487, 494, 494, 489, 500, 476, 495, 473, 504, 493, 495, 494, 498, 490, 507, 485, 493, 491, 491, 502, 492, 490, 494, 499, 486, 490, 496, 490, 498, 485, 491, 528, 490, 506, 490, 490, 507, 482, 489, 486, 495, 501, 495, 497, 511, 489, 492, 479, 494, 492, 512, 489, 517, 491, 491, 501, 484, 490, 494, 497, 494, 495, 492, 492, 492, 486, 506, 477, 498, 486, 491, 501, 500, 489, 499, 505, 514, 488, 485, 502, 496, 489, 495, 506, 479, 498, 491, 500, 486, 495, 490, 497, 496, 500, 497, 497, 498, 502, 487, 495, 509, 489, 494, 505, 504, 491, 494, 500, 485, 491, 493, 513, 492, 489, 499, 492, 492, 507, 495, 492, 475, 484, 507, 489, 489, 497, 498, 495, 483, 494, 494, 493, 491, 499, 526, 483, 503, 501, 484, 491, 493, 506, 499, 489, 496, 499, 486, 503, 488, 475, 498, 484, 489, 490, 492, 491, 490, 498, 488, 485, 490, 504, 493, 494, 503, 472, 496, 493, 493, 523, 480, 492, 493, 505, 485]"
rest,"[487, 490, 504, 492, 502, 490, 491, 506, 487, 495, 498, 496, 507, 491, 490, 503, 492, 493, 496, 490, 501, 491, 494, 495, 495, 494, 493, 499, 489, 501, 487, 503, 497, 502, 494, 494, 490, 520, 481, 490, 491, 495, 495, 492, 503, 486, 494, 492, 502, 486, 494, 492, 489, 498, 484, 494, 491, 496, 495, 501, 489, 496, 495, 499, 504, 497, 508, 487, 487, 491, 508, 485, 503, 502, 484, 496, 499, 493, 503, 497, 493, 501, 497, 495, 497, 486, 492, 489, 498, 493, 494, 495, 511, 490, 502, 486, 491, 492, 495, 492, 494, 493, 493, 493, 493, 496, 493, 494, 494, 493, 493, 494, 494, 493, 494, 494, 494, 494, 494, 494, 494, 494, 494, 494, 494, 494, 494, 494, 495, 494, 494, 494, 495, 495, 495, 494, 495, 494, 494, 494, 494, 495, 494, 495, 494, 494, 494, 495, 494, 495, 494, 494, 494, 495, 495, 494, 494, 494, 495, 494, 494, 494, 495, 495, 495, 495, 495, 494, 494, 495, 495, 494, 494, 494, 494, 495, 494, 495, 494, 494, 495, 494, 494, 494, 494, 495, 495, 494, 495, 494, 495, 494, 495, 494, 495, 495, 494, 494, 494, 495, 495, 495, 494, 495, 495, 494, 494, 494, 494, 494, 494, 494, 494, 494, 495, 494, 495, 494, 494, 495, 495, 494, 494, 495, 494, 494, 494, 494, 494, 494, 494, 494, 494, 495, 494, 494, 494, 494, 494, 494, 494, 494, 494, 494, 494, 494, 494, 494, 494, 494, 494, 494, 494, 494, 494, 494, 494, 494, 494, 494, 494, 494, 495, 494, 494, 494, 494, 494, 494, 494, 494, 494, 494, 494, 494, 494, 494, 494, 494, 494, 494, 495, 494, 494, 494, 494, 494, 494, 494, 494, 494, 494, 494, 494, 494, 494, 494, 494, 494, 494, 494, 494, 494, 494, 494, 495, 494, 494, 494, 494, 494, 494, 494, 494, 494, 494, 494, 494, 494, 494, 494, 494, 494, 494, 494, 494, 494, 493, 494, 494, 494, 493, 494, 494, 494, 494, 493, 494, 493, 494, 494, 494, 493, 493, 494, 494, 493, 494, 494, 494, 494, 493, 494, 493, 494, 493, 494, 493, 494, 493, 494, 494, 493, 494, 493, 494, 493, 494, 494, 494, 493, 493, 493, 493, 494, 493, 493, 493, 493, 493, 494, 493, 493, 493, 494, 493, 493, 493, 493, 493, 493, 493, 493, 494, 493, 494, 493, 493, 493, 493, 493, 493, 494, 493, 493, 493, 494, 493, 493, 493, 493, 493, 494, 493, 493, 493, 493, 493, 493, 493, 493, 493, 493, 493, 493, 493, 494, 493, 493, 493, 493, 493, 493, 493, 493, 493, 494, 493, 493, 493, 493, 493, 493, 494, 493, 493, 493, 494, 493, 493, 493, 494, 493, 493, 492, 493, 493, 493, 493, 493, 494, 493, 493, 493, 493, 493, 493, 493, 493, 493, 493, 493, 493, 493, 493, 493, 493, 494, 492, 493, 493, 493, 493, 493, 493, 493, 493, 493, 493, 493, 494, 493, 493, 492, 493, 493, 493, 492, 493, 493, 493, 493, 493, 493, 493, 494, 493, 493, 494, 493, 493, 493, 492, 493, 493, 493, 493, 492, 493, 493, 493, 493, 493, 493, 493, 493, 493, 493, 493, 493, 493, 493, 493, 493, 493, 493, 493, 493, 494, 493, 493, 493, 493, 493, 493, 493, 493, 493, 493, 493, 493, 492, 493, 493, 493, 493, 493, 493, 493, 493, 493, 493, 493, 493, 492, 493, 495, 490, 493, 493, 493, 493, 493, 493, 493, 493, 492]"
right,"[493, 493, 495, 491, 493, 493, 493, 492, 493, 493, 493, 493, 493, 494, 493, 493, 493, 493, 493, 493, 493, 493, 492, 493, 493, 493, 493, 493, 493, 494, 493, 493, 493, 493, 494, 492, 493, 493, 494, 493, 494, 492, 493, 493, 493, 493, 493, 494, 493, 493, 493, 493, 493, 493, 493, 493, 492, 494, 493, 493, 493, 493, 494, 493, 493, 493, 493, 493, 493, 493, 493, 493, 493, 493, 492, 493, 493, 494, 492, 493, 493, 493, 493, 493, 492, 494, 494, 491, 493, 493, 492, 492, 493, 492, 493, 495, 490, 493, 492, 492, 493, 493, 492, 493, 492, 494, 493, 494, 491, 499, 496, 486, 493, 490, 493, 495, 497, 494, 492, 497, 488, 488, 489, 494, 492, 493, 493, 493, 496, 493, 492, 493, 495, 492, 493, 507, 486, 493, 490, 496, 496, 492, 495, 494, 491, 498, 500, 496, 488, 500, 493, 488, 491, 502, 485, 494, 496, 479, 508, 482, 491, 499, 482, 498, 494, 489, 511, 494, 498, 503, 519, 472, 509, 484, 487, 495, 490, 502, 492, 491, 491, 493, 488, 511, 484, 489, 494, 496, 484, 488, 501, 491, 493, 535, 487, 495, 485, 483, 505, 485, 497, 494, 489, 492, 500, 497, 486, 490, 504, 494, 499, 496, 494, 484, 493, 497, 496, 496, 491, 493, 492, 501, 497, 485, 490, 493, 494, 494, 483, 497, 483, 495, 496, 485, 493, 494, 494, 502, 485, 507, 487, 495, 492, 490, 495, 506, 483, 492, 498, 491, 496, 490, 506, 490, 493, 508, 480, 508, 489, 488, 493, 510, 491, 492, 491, 489, 494, 493, 494, 492, 500, 491, 493, 501, 492, 494, 497, 498, 493, 491, 502, 492, 500, 495, 500, 492, 497, 490, 489, 491, 497, 485, 491, 487, 492, 487, 487, 505, 499, 485, 492, 501, 491, 493, 491, 496, 491, 500, 492, 497, 493, 493, 496, 489, 500, 491, 487, 494, 495, 494, 498, 487, 501, 484, 490, 493, 498, 493, 502, 485, 496, 488, 494, 491, 495, 495, 486, 495, 505, 493, 483, 494, 498, 501, 491, 486, 497, 491, 493, 496, 491, 492, 492, 493, 492, 500, 494, 486, 507, 485, 486, 494, 492, 493, 501, 497, 497, 486, 503, 489, 487, 494, 494, 498, 496, 498, 488, 492, 496, 491, 498, 486, 509, 489, 490, 500, 487, 508, 481, 497, 501, 505, 493, 497, 489, 497, 513, 489, 493, 491, 489, 497, 491, 487, 493, 485, 497, 492, 493, 490, 496, 493, 494, 494, 501, 492, 490, 500, 496, 493, 491, 494, 497, 493, 493, 496, 494, 490, 500, 490, 493, 490, 494, 500, 496, 487, 492, 492, 494, 496, 496, 501, 498, 490, 499, 492, 489, 492, 497, 484, 491, 496, 496, 494, 488, 492, 494, 505, 495, 496, 497, 503, 490, 492, 499, 483, 488, 496, 496, 493, 492, 501, 494, 495, 493, 493, 492, 496, 492, 491, 501, 491, 490, 491, 492, 494, 496, 490, 496, 509, 491, 490, 499, 491, 492, 490, 492, 493, 496, 489, 495, 492, 495, 492, 499, 488, 496, 494, 487, 493, 491, 493, 495, 495, 498, 491, 491, 494, 492, 492, 494, 496, 490, 492, 500, 494, 486, 493, 496, 500, 492, 492, 493, 492, 494, 492, 495, 495, 491, 497, 490, 498, 490, 486, 492, 495, 492, 499, 489, 493, 497, 495, 492, 497, 491, 492, 495, 497, 486, 493, 499, 491, 500, 484, 493, 491, 492, 493, 491, 489, 493, 495, 491, 493, 494, 496, 493]"
rest,"[495, 505, 489, 494, 495, 491, 490, 490, 497, 492, 492, 492, 490, 493, 495, 491, 493, 495, 496, 492, 492, 505, 491, 496, 492, 493, 491, 492, 489, 495, 493, 493, 491, 492, 496, 491, 488, 497, 488, 496, 493, 498, 492, 492, 502, 494, 496, 491, 495, 488, 493, 490, 493, 490, 493, 494, 492, 494, 497, 497, 489, 497, 501, 486, 492, 493, 492, 498, 493, 493, 496, 495, 496, 491, 495, 493, 497, 498, 489, 494, 494, 491, 493, 496, 499, 495, 503, 489, 493, 494, 494, 483, 490, 496, 495, 493, 492, 490, 494, 493, 493, 494, 493, 493, 493, 493, 493, 494, 494, 494, 493, 493, 494, 494, 493, 494, 494, 494, 494, 494, 493, 494, 494, 494, 494, 494, 494, 494, 494, 494, 494, 493, 494, 494, 494, 494, 494, 494, 493, 494, 494, 494, 494, 494, 494, 494, 494, 494, 493, 494, 494, 494, 494, 493, 494, 494, 493, 493, 494, 494, 494, 494, 494, 494, 494, 494, 494, 494, 494, 493, 494, 494, 493, 494, 493, 494, 494, 494, 494, 493, 494, 493, 494, 493, 494, 493, 494, 494, 493, 493, 494, 493, 493, 493, 493, 494, 493, 494, 493, 494, 493, 493, 493, 493, 494, 493, 493, 493, 493, 493, 494, 493, 494, 493, 494, 494, 493, 493, 493, 493, 493, 493, 493, 493, 493, 494, 493, 493, 494, 493, 494, 493, 493, 493, 493, 493, 493, 493, 494, 493, 493, 493, 493, 493, 493, 493, 493, 493, 493, 493, 493, 494, 494, 494, 493, 493, 493, 494, 493, 493, 493, 493, 494, 493, 494, 493, 493, 493, 493, 493, 493, 493, 493, 494, 493, 493, 493, 494, 493, 493, 493, 493, 493, 493, 493, 492, 494, 493, 493, 493, 493, 493, 493, 493, 493, 492, 493, 493, 493, 493, 492, 493, 493, 493, 493, 493, 493, 493, 493, 493, 493, 493, 493, 493, 493, 493, 493, 493, 493, 493, 493, 493, 493, 492, 493, 494, 493, 493, 493, 492, 493, 493, 493, 493, 493, 494, 493, 493, 493, 493, 493, 493, 493, 493, 494, 493, 493, 493, 493, 494, 494, 493, 493, 494, 493, 493, 493, 493, 493, 494, 493, 494, 493, 493, 493, 493, 493, 493, 494, 493, 493, 493, 493, 493, 494, 493, 494, 493, 493, 494, 493, 493, 493, 493, 493, 494, 493, 493, 493, 493, 493, 493, 493, 493, 493, 493, 493, 493, 493, 493, 493, 493, 493, 493, 493, 493, 493, 494, 493, 493, 493, 493, 493, 493, 492, 493, 493, 494, 493, 493, 493, 493, 493, 493, 493, 493, 494, 493, 493, 493, 493, 494, 493, 493, 493, 493, 493, 493, 493, 493, 493, 494, 493, 494, 493, 493, 493, 493, 493, 493, 494, 493, 494, 493, 493, 493, 494, 493, 493, 493, 493, 493, 493, 493, 493, 494, 493, 493, 493, 494, 493, 493, 493, 493, 493, 494, 494, 493, 493, 493, 493, 493, 494, 493, 493, 493, 493, 492, 493, 494, 493, 493, 493, 493, 493, 494, 493, 494, 493, 494, 494, 493, 493, 493, 493, 493, 493, 493, 494, 493, 494, 493, 493, 494, 494, 493, 493, 493, 493, 494, 493, 493, 493, 493, 493, 493, 493, 493, 493, 493, 493, 493, 493, 493, 494, 493, 494, 494, 494, 493, 494, 493, 494, 493, 493, 494, 494, 494, 493, 494, 494, 494, 494, 494, 494, 494, 494, 494, 493, 494, 494, 494, 494, 494, 494, 494, 494, 494, 494, 494, 494, 495, 494, 494, 494, 496, 492]"
right,"[494, 494, 495, 494, 494, 495, 494, 491, 492, 494, 494, 494, 494, 494, 494, 494, 494, 494, 494, 494, 494, 494, 494, 494, 494, 493, 496, 494, 494, 494, 496, 491, 494, 494, 493, 494, 494, 494, 494, 494, 494, 494, 494, 494, 494, 494, 494, 494, 493, 494, 494, 494, 494, 494, 494, 494, 494, 494, 494, 494, 494, 494, 494, 494, 494, 494, 494, 494, 494, 495, 494, 494, 494, 494, 494, 494, 494, 494, 494, 494, 494, 493, 493, 494, 493, 495, 494, 494, 494, 494, 494, 494, 494, 495, 492, 496, 491, 493, 495, 490, 493, 494, 497, 494, 494, 494, 492, 494, 498, 493, 495, 493, 496, 502, 489, 490, 494, 500, 491, 496, 494, 498, 495, 524, 480, 489, 489, 516, 493, 479, 494, 516, 494, 513, 465, 510, 485, 492, 535, 489, 479, 506, 495, 482, 513, 490, 503, 522, 457, 500, 519, 483, 507, 510, 469, 491, 467, 483, 493, 536, 468, 528, 511, 479, 487, 491, 475, 520, 497, 470, 504, 481, 540, 471, 464, 499, 477, 459, 501, 492, 502, 528, 487, 493, 479, 503, 492, 533, 477, 533, 483, 487, 485, 498, 500, 483, 491, 525, 490, 493, 481, 490, 513, 486, 513, 470, 482, 505, 518, 447, 488, 482, 492, 502, 471, 496, 474, 487, 490, 492, 477, 506, 485, 487, 501, 501, 472, 494, 488, 513, 490, 471, 484, 521, 491, 528, 488, 496, 518, 446, 485, 484, 509, 487, 490, 480, 488, 494, 491, 484, 490, 489, 489, 508, 500, 492, 490, 505, 494, 484, 486, 499, 486, 499, 481, 515, 482, 493, 472, 492, 495, 501, 489, 538, 478, 499, 494, 489, 504, 512, 486, 502, 473, 491, 499, 496, 492, 495, 472, 489, 501, 493, 486, 503, 491, 482, 490, 498, 488, 487, 497, 490, 492, 511, 513, 485, 488, 491, 499, 492, 468, 479, 513, 475, 496, 494, 491, 500, 470, 488, 512, 481, 499, 484, 501, 494, 486, 528, 447, 491, 497, 534, 478, 494, 494, 521, 476, 482, 518, 491, 489, 508, 487, 511, 493, 494, 499, 510, 484, 499, 522, 476, 476, 492, 487, 472, 489, 505, 495, 517, 484, 533, 480, 493, 505, 502, 503, 496, 489, 490, 483, 508, 459, 522, 497, 477, 508, 498, 481, 503, 497, 511, 470, 484, 491, 528, 482, 482, 526, 480, 508, 489, 496, 489, 480, 496, 505, 488, 495, 488, 499, 495, 521, 489, 477, 491, 488, 497, 519, 489, 496, 521, 504, 479, 489, 487, 512, 499, 503, 481, 497, 494, 489, 488, 493, 494, 473, 492, 497, 501, 485, 489, 500, 487, 491, 492, 501, 505, 488, 490, 486, 492, 483, 492, 495, 496, 508, 491, 497, 503, 496, 502, 478, 495, 505, 494, 493, 478, 490, 502, 492, 491, 493, 490, 507, 483, 486, 494, 510, 497, 496, 512, 488, 501, 475, 486, 493, 511, 489, 508, 476, 497, 526, 486, 482, 490, 495, 489, 487, 507, 494, 530, 486, 484, 489, 493, 501, 481, 490, 497, 494, 497, 503, 488, 479, 494, 490, 490, 482, 498, 479, 498, 467, 489, 491, 495, 500, 481, 495, 487, 493, 485, 508, 482, 487, 493, 499, 507, 485, 496, 495, 498, 490, 493, 487, 497, 515, 479, 492, 489, 494, 490, 489, 494, 499, 475, 475, 486, 489, 494, 514, 495, 499, 488, 493, 489, 488, 501, 496, 489, 491, 509, 521, 486, 503, 487, 494, 496, 490, 493, 502, 493, 496, 480, 493, 504]"
rest,"[506, 488, 502, 480, 511, 500, 488, 510, 486, 492, 492, 493, 498, 494, 493, 493, 491, 513, 489, 499, 491, 489, 491, 505, 483, 483, 494, 496, 496, 485, 512, 496, 483, 488, 498, 487, 509, 487, 490, 496, 493, 499, 496, 488, 509, 495, 494, 493, 502, 493, 482, 492, 507, 470, 486, 491, 498, 495, 494, 487, 491, 501, 494, 521, 483, 491, 492, 494, 490, 496, 486, 497, 486, 494, 492, 483, 497, 495, 487, 503, 489, 493, 496, 500, 491, 505, 490, 500, 489, 492, 490, 498, 481, 494, 492, 492, 503, 490, 496, 489, 491, 490, 499, 494, 494, 497, 495, 499, 504, 500, 488, 491, 494, 488, 499, 487, 506, 487, 483, 494, 489, 494, 504, 486, 493, 493, 497, 495, 494, 473, 491, 507, 485, 499, 501, 494, 487, 500, 479, 497, 484, 489, 502, 495, 489, 495, 493, 503, 493, 487, 493, 506, 487, 490, 490, 495, 491, 500, 490, 496, 493, 490, 494, 489, 490, 500, 486, 492, 551, 479, 490, 493, 495, 491, 491, 491, 494, 495, 498, 502, 488, 487, 493, 490, 493, 505, 490, 492, 498, 491, 495, 501, 489, 512, 491, 494, 492, 492, 492, 493, 496, 496, 492, 495, 491, 513, 474, 490, 501, 492, 492, 497, 500, 488, 499, 482, 494, 511, 496, 509, 492, 493, 488, 493, 490, 503, 493, 496, 496, 492, 484, 492, 492, 493, 494, 493, 487, 497, 491, 497, 492, 494, 489, 493, 484, 494, 489, 492, 493, 493, 498, 503, 491, 496, 494, 492, 504, 502, 496, 487, 490, 493, 490, 495, 497, 491, 493, 493, 494, 495, 491, 486, 499, 492, 492, 498, 506, 490, 492, 493, 493, 494, 492, 494, 501, 489, 494, 492, 493, 496, 494, 489, 493, 492, 491, 507, 493, 492, 494, 499, 493, 495, 497, 492, 489, 492, 492, 497, 493, 495, 502, 495, 493, 495, 508, 489, 496, 493, 510, 491, 488, 492, 492, 497, 499, 490, 491, 493, 492, 490, 493, 493, 495, 503, 490, 492, 492, 494, 492, 493, 493, 494, 492, 493, 492, 499, 504, 495, 486, 490, 493, 492, 491, 493, 494, 493, 493, 493, 494, 494, 494, 494, 493, 503, 490, 489, 492, 500, 493, 491, 493, 492, 493, 493, 494, 493, 494, 493, 493, 494, 494, 493, 498, 498, 502, 485, 491, 492, 492, 494, 493, 494, 493, 493, 493, 493, 492, 493, 494, 494, 497, 493, 492, 492, 494, 493, 494, 493, 494, 494, 494, 493, 493, 494, 494, 494, 493, 494, 494, 494, 494, 494, 494, 494, 493, 494, 494, 494, 494, 493, 494, 494, 494, 494, 494, 493, 494, 494, 494, 494, 494, 494, 494, 495, 494, 494, 493, 494, 494, 494, 493, 494, 494, 494, 494, 494, 494, 494, 494, 494, 494, 494, 494, 494, 494, 495, 494, 493, 494, 494, 494, 494, 494, 494, 494, 494, 494, 494, 494, 494, 494, 493, 494, 494, 494, 494, 494, 494, 494, 494, 494, 494, 494, 494, 494, 494, 494, 494, 494, 494, 494, 494, 493, 494, 494, 494, 494, 494, 493, 494, 494, 494, 494, 493, 494, 493, 494, 494, 494, 494, 494, 493, 493, 494, 493, 494, 493, 494, 493, 494, 493, 493, 493, 493, 493, 493, 494, 493, 493, 493, 494, 493, 494, 494, 493, 494, 493, 493, 493, 494, 493, 492, 493, 493, 493, 493, 492, 493, 493, 493, 493, 493, 493, 493, 493, 493, 493, 493, 494, 493, 493, 493, 493, 493, 493, 493, 492]"
right,"[493, 493, 493, 493, 493, 493, 493, 493, 493, 492, 493, 493, 493, 493, 493, 493, 493, 493, 492, 493, 493, 493, 493, 493, 494, 493, 493, 493, 493, 493, 493, 492, 493, 493, 493, 493, 493, 493, 492, 493, 493, 493, 493, 493, 493, 493, 492, 493, 493, 493, 493, 493, 493, 493, 493, 493, 493, 493, 493, 493, 492, 492, 493, 493, 493, 493, 492, 492, 493, 493, 493, 493, 493, 493, 493, 493, 492, 493, 493, 493, 493, 493, 493, 493, 493, 492, 492, 493, 493, 492, 493, 493, 493, 493, 493, 493, 492, 494, 493, 493, 493, 493, 493, 493, 493, 493, 494, 493, 493, 493, 493, 493, 493, 493, 493, 492, 493, 493, 493, 493, 492, 493, 493, 493, 492, 492, 493, 493, 492, 493, 493, 493, 493, 493, 493, 493, 493, 493, 493, 492, 493, 493, 493, 492, 493, 494, 493, 493, 492, 493, 493, 493, 492, 493, 493, 493, 492, 493, 492, 493, 493, 493, 494, 490, 492, 492, 493, 493, 493, 493, 493, 493, 493, 492, 493, 493, 493, 493, 492, 493, 493, 492, 492, 492, 493, 493, 493, 493, 493, 493, 493, 492, 493, 493, 492, 492, 493, 492, 493, 494, 492, 492, 493, 493, 492, 493, 492, 493, 493, 493, 492, 493, 493, 493, 493, 493, 493, 493, 493, 493, 493, 493, 493, 493, 493, 493, 492, 494, 493, 493, 492, 493, 493, 493, 494, 490, 492, 493, 493, 493, 493, 493, 493, 492, 493, 492, 493, 493, 493, 492, 493, 493, 493, 493, 493, 492, 493, 493, 492, 493, 493, 493, 493, 493, 492, 492, 493, 493, 492, 493, 493, 493, 493, 493, 493, 493, 493, 493, 493, 492, 493, 494, 493, 493, 492, 493, 493, 493, 492, 493, 493, 493, 493, 492, 493, 493, 492, 493, 493, 493, 493, 493, 493, 492, 493, 492, 493, 492, 493, 494, 493, 493, 493, 493, 493, 493, 492, 493, 493, 493, 493, 493, 494, 491, 493, 493, 493, 492, 493, 493, 493, 493, 493, 494, 494, 493, 496, 492, 492, 494, 492, 491, 497, 492, 502, 493, 502, 491, 495, 500, 489, 496, 494, 507, 502, 502, 496, 511, 482, 519, 486, 498, 517, 485, 505, 516, 544, 453, 490, 510, 487, 494, 477, 511, 513, 461, 486, 489, 525, 480, 494, 490, 501, 524, 486, 518, 468, 494, 497, 497, 506, 513, 496, 483, 553, 477, 494, 477, 485, 483, 506, 475, 491, 503, 499, 494, 536, 480, 478, 499, 487, 489, 495, 472, 486, 499, 503, 488, 491, 488, 500, 485, 472, 524, 485, 491, 493, 486, 509, 494, 496, 501, 471, 503, 475, 487, 498, 496, 488, 501, 501, 492, 476, 500, 487, 512, 505, 486, 489, 493, 486, 494, 503, 484, 519, 482, 492, 488, 517, 491, 488, 492, 492, 499, 486, 496, 508, 492, 508, 493, 494, 500, 495, 499, 491, 493, 492, 491, 509, 489, 492, 500, 496, 514, 478, 492, 493, 507, 487, 501, 502, 490, 490, 495, 480, 497, 490, 487, 487, 496, 496, 492, 498, 485, 486, 489, 497, 498, 490, 497, 494, 491, 507, 482, 494, 500, 495, 489, 493, 480, 492, 492, 498, 495, 500, 499, 493, 483, 486, 494, 486, 507, 500, 492, 499, 495, 496, 493, 496, 490, 511, 489, 499, 488, 495, 489, 485, 490, 496, 491, 493, 503, 487, 498, 492, 499, 498, 503, 473, 487, 494, 494, 491, 496, 515, 490, 487, 506, 486, 495, 500, 512, 492, 488, 487, 492, 496]"
rest,"[490, 485, 497, 499, 492, 493, 498, 502, 487, 487, 504, 490, 501, 489, 490, 496, 497, 495, 488, 497, 485, 491, 495, 491, 495, 497, 497, 503, 488, 490, 500, 512, 486, 491, 496, 507, 490, 495, 490, 484, 491, 494, 499, 499, 490, 493, 492, 494, 497, 495, 492, 494, 488, 504, 479, 479, 490, 490, 486, 500, 492, 490, 494, 503, 490, 494, 497, 489, 490, 493, 506, 480, 490, 491, 498, 494, 498, 495, 495, 491, 499, 494, 501, 489, 488, 495, 499, 492, 493, 498, 494, 491, 507, 487, 491, 494, 493, 491, 503, 491, 492, 493, 494, 494, 487, 494, 491, 493, 494, 494, 496, 493, 493, 494, 497, 494, 495, 493, 494, 494, 493, 494, 494, 495, 494, 494, 494, 494, 494, 494, 494, 494, 494, 495, 494, 494, 494, 494, 495, 494, 495, 494, 494, 494, 495, 494, 494, 496, 495, 494, 494, 494, 494, 495, 494, 495, 494, 495, 494, 494, 494, 494, 494, 494, 495, 494, 494, 495, 494, 494, 494, 494, 495, 494, 494, 494, 495, 494, 495, 494, 494, 494, 494, 495, 494, 494, 495, 494, 494, 494, 494, 494, 495, 494, 494, 494, 495, 494, 494, 494, 494, 494, 494, 494, 494, 495, 494, 494, 494, 494, 494, 494, 494, 494, 494, 494, 494, 494, 494, 494, 494, 494, 494, 494, 494, 494, 494, 494, 494, 494, 494, 494, 494, 494, 494, 494, 494, 494, 494, 494, 494, 494, 493, 494, 494, 494, 494, 494, 493, 493, 494, 493, 494, 493, 494, 494, 493, 493, 493, 494, 494, 494, 493, 494, 493, 494, 493, 493, 494, 494, 493, 493, 493, 493, 494, 493, 494, 493, 494, 493, 493, 493, 493, 493, 493, 494, 493, 493, 493, 494, 493, 494, 494, 494, 493, 494, 493, 494, 493, 493, 493, 493, 494, 493, 493, 493, 493, 493, 493, 493, 493, 493, 493, 494, 493, 494, 493, 494, 493, 493, 493, 494, 493, 493, 493, 493, 494, 494, 494, 493, 494, 493, 494, 493, 493, 493, 494, 493, 493, 493, 493, 494, 493, 494, 493, 493, 493, 494, 494, 493, 494, 493, 493, 493, 493, 493, 494, 493, 493, 493, 493, 493, 493, 493, 493, 493, 493, 493, 493, 493, 493, 494, 493, 493, 494, 494, 493, 493, 493, 493, 493, 493, 493, 492, 493, 493, 493, 493, 493, 493, 493, 493, 493, 493, 493, 493, 493, 493, 493, 493, 493, 493, 492, 493, 493, 493, 493, 493, 493, 493, 493, 493, 493, 493, 493, 493, 493, 493, 493, 493, 493, 493, 492, 494, 493, 493, 493, 493, 493, 494, 493, 493, 494, 493, 493, 493, 493, 493, 493, 493, 493, 493, 493, 493, 493, 493, 493, 493, 493, 493, 492, 493, 493, 493, 493, 493, 493, 493, 493, 493, 493, 493, 493, 493, 493, 493, 493, 493, 493, 493, 493, 494, 493, 493, 493, 493, 493, 493, 493, 493, 493, 493, 493, 493, 493, 493, 493, 493, 493, 492, 494, 493, 493, 493, 493, 493, 493, 493, 493, 493, 493, 494, 492, 494, 493, 494, 493, 493, 492, 493, 493, 493, 493, 493, 494, 493, 493, 493, 493, 493, 494, 493, 493, 493, 493, 494, 493, 493, 493, 493, 493, 493, 493, 492, 493, 493, 492, 493, 493, 493, 493, 493, 493, 495, 493, 493, 493, 492, 493, 493, 493, 493, 493, 493, 493, 493, 493, 493, 495, 494, 493, 494, 492, 493, 493, 493, 493, 493, 493, 493, 494, 493, 493, 493, 493, 493, 493]"
right,"[494, 493, 494, 493, 493, 493, 494, 493, 493, 495, 490, 494, 493, 495, 489, 493, 493, 493, 493, 493, 493, 494, 493, 494, 493, 494, 493, 493, 493, 493, 494, 493, 493, 493, 494, 493, 494, 493, 494, 493, 493, 493, 493, 493, 493, 493, 493, 493, 494, 494, 493, 494, 493, 493, 493, 492, 493, 493, 494, 493, 493, 493, 493, 493, 494, 493, 492, 494, 494, 493, 493, 494, 491, 493, 493, 493, 493, 494, 493, 494, 493, 493, 494, 494, 493, 493, 494, 494, 493, 493, 494, 493, 493, 493, 494, 492, 493, 493, 493, 496, 490, 493, 497, 491, 494, 491, 490, 493, 497, 501, 494, 489, 491, 490, 492, 492, 494, 493, 496, 492, 495, 493, 496, 494, 496, 495, 490, 496, 495, 492, 498, 493, 493, 491, 504, 489, 493, 500, 488, 507, 483, 502, 493, 496, 490, 498, 521, 487, 504, 479, 495, 505, 494, 493, 497, 486, 477, 505, 493, 491, 474, 489, 501, 502, 491, 495, 497, 488, 504, 504, 488, 494, 486, 503, 502, 481, 504, 489, 502, 485, 494, 497, 483, 492, 496, 508, 491, 495, 486, 493, 491, 491, 503, 481, 494, 485, 494, 493, 501, 491, 503, 490, 495, 489, 484, 494, 496, 494, 501, 494, 494, 500, 487, 490, 496, 499, 495, 488, 495, 498, 508, 487, 492, 491, 493, 492, 510, 492, 486, 492, 501, 488, 485, 490, 494, 500, 488, 498, 505, 501, 487, 512, 486, 492, 492, 488, 495, 508, 480, 493, 499, 496, 496, 489, 503, 490, 488, 494, 499, 495, 492, 492, 501, 483, 489, 492, 496, 482, 497, 494, 494, 494, 498, 492, 491, 494, 522, 484, 495, 489, 498, 503, 482, 489, 503, 502, 484, 493, 492, 493, 503, 496, 499, 504, 484, 494, 495, 492, 484, 522, 481, 495, 492, 489, 493, 500, 491, 490, 495, 497, 488, 501, 496, 500, 490, 486, 493, 495, 490, 500, 497, 494, 493, 483, 499, 492, 487, 496, 486, 499, 488, 506, 489, 498, 504, 489, 490, 493, 496, 493, 498, 497, 489, 495, 494, 492, 495, 490, 500, 493, 496, 486, 496, 502, 495, 492, 496, 492, 497, 497, 494, 493, 493, 492, 494, 496, 504, 496, 499, 490, 495, 493, 490, 491, 489, 495, 495, 493, 493, 492, 497, 497, 491, 497, 491, 486, 492, 500, 492, 491, 495, 491, 494, 492, 501, 502, 498, 501, 492, 493, 494, 493, 490, 501, 495, 496, 493, 493, 493, 498, 479, 492, 494, 486, 518, 488, 496, 491, 492, 491, 488, 496, 494, 495, 493, 495, 492, 494, 492, 493, 498, 496, 492, 492, 492, 488, 491, 502, 498, 493, 492, 498, 490, 492, 498, 492, 508, 489, 494, 492, 491, 494, 494, 494, 490, 491, 493, 496, 490, 493, 489, 499, 475, 488, 494, 493, 493, 491, 493, 496, 493, 492, 493, 496, 494, 493, 492, 495, 496, 488, 488, 487, 492, 502, 480, 489, 492, 491, 494, 497, 493, 494, 493, 499, 494, 494, 494, 508, 499, 494, 491, 489, 499, 488, 491, 492, 494, 499, 492, 493, 495, 498, 493, 497, 513, 489, 493, 501, 489, 495, 497, 492, 494, 504, 493, 494, 497, 489, 497, 496, 493, 499, 488, 494, 492, 494, 493, 493, 496, 494, 496, 502, 493, 494, 494, 484, 501, 488, 489, 493, 492, 497, 492, 493, 494, 493, 496, 494, 494, 497, 494, 494, 500, 487, 498, 489, 493, 496, 491, 494, 493, 494, 494, 492, 494, 493, 500]"
rest,"[497, 489, 495, 486, 496, 492, 492, 498, 490, 496, 498, 490, 493, 496, 494, 498, 494, 496, 488, 493, 499, 495, 494, 494, 495, 488, 496, 497, 489, 491, 500, 495, 490, 492, 493, 496, 492, 492, 490, 495, 487, 491, 490, 498, 504, 492, 496, 492, 489, 495, 497, 498, 496, 488, 502, 495, 491, 495, 497, 490, 488, 494, 493, 504, 493, 495, 485, 490, 496, 492, 494, 503, 490, 499, 496, 493, 501, 494, 488, 493, 500, 486, 496, 493, 493, 493, 498, 495, 491, 496, 490, 494, 495, 492, 499, 494, 494, 492, 494, 494, 493, 494, 494, 494, 494, 494, 493, 494, 493, 494, 493, 494, 496, 494, 494, 494, 494, 494, 494, 494, 495, 494, 494, 495, 494, 494, 494, 494, 494, 494, 494, 494, 493, 494, 494, 494, 494, 494, 494, 494, 494, 494, 493, 494, 494, 493, 494, 494, 494, 494, 494, 494, 494, 494, 494, 494, 494, 494, 494, 494, 494, 494, 494, 494, 494, 494, 494, 494, 494, 494, 494, 493, 494, 493, 494, 494, 494, 493, 494, 493, 493, 494, 494, 494, 493, 494, 494, 494, 493, 493, 493, 494, 493, 493, 493, 493, 494, 493, 494, 493, 493, 493, 493, 493, 493, 493, 493, 493, 493, 493, 494, 494, 493, 494, 493, 493, 493, 493, 493, 493, 494, 493, 493, 493, 494, 493, 493, 493, 493, 493, 493, 493, 493, 493, 493, 493, 493, 493, 492, 493, 493, 493, 493, 493, 494, 493, 493, 492, 493, 493, 493, 493, 493, 492, 494, 493, 493, 493, 493, 493, 493, 493, 493, 494, 493, 494, 493, 493, 493, 493, 493, 493, 493, 493, 494, 493, 493, 493, 493, 493, 493, 493, 493, 493, 493, 494, 493, 493, 493, 493, 493, 494, 493, 494, 494, 492, 492, 493, 493, 493, 493, 493, 493, 493, 493, 493, 493, 493, 494, 493, 493, 492, 493, 494, 494, 493, 493, 493, 492, 493, 494, 492, 492, 492, 493, 493, 495, 493, 493, 493, 493, 493, 494, 492, 493, 493, 494, 492, 493, 494, 493, 493, 493, 493, 492, 493, 493, 493, 493, 493, 494, 494, 493, 492, 492, 493, 492, 493, 493, 492, 493, 493, 493, 493, 493, 493, 492, 492, 493, 494, 492, 493, 493, 493, 493, 494, 492, 492, 491, 493, 493, 493, 493, 493, 493, 493, 495, 494, 493, 493, 494, 493, 495, 493, 493, 493, 493, 493, 492, 494, 494, 494, 493, 493, 493, 493, 493, 493, 493, 495, 492, 492, 494, 493, 493, 493, 493, 493, 494, 492, 492, 493, 492, 494, 493, 494, 493, 493, 493, 494, 492, 493, 494, 493, 493, 493, 494, 493, 493, 493, 495, 492, 493, 492, 493, 493, 493, 494, 494, 493, 493, 494, 493, 493, 492, 492, 493, 494, 493, 493, 493, 493, 493, 493, 494, 491, 493, 493, 494, 493, 494, 494, 493, 493, 492, 494, 493, 493, 493, 494, 493, 494, 493, 493, 493, 493, 493, 493, 494, 491, 493, 493, 494, 492, 493, 494, 493, 494, 492, 492, 493, 493, 492, 493, 492, 495, 491, 491, 493, 492, 492, 495, 491, 492, 493, 493, 493, 493, 493, 493, 494, 492, 493, 493, 493, 493, 493, 493, 493, 493, 493, 494, 493, 493, 493, 493, 492, 493, 492, 493, 493, 493, 493, 493, 493, 494, 493, 493, 492, 492, 495, 492, 493, 495, 491, 493, 493, 493, 493, 494, 493, 494, 493, 494, 493, 495, 493, 493, 494, 492, 494, 493, 494, 499, 492, 494, 492]"
right,"[494, 494, 493, 494, 494, 494, 494, 493, 494, 493, 494, 493, 494, 495, 492, 494, 494, 494, 494, 493, 494, 494, 494, 494, 494, 497, 491, 494, 493, 494, 494, 494, 494, 494, 494, 494, 495, 493, 494, 494, 493, 494, 493, 493, 494, 493, 494, 495, 491, 493, 494, 494, 494, 494, 494, 494, 493, 494, 494, 494, 494, 493, 494, 493, 494, 494, 495, 490, 494, 493, 494, 494, 493, 494, 493, 494, 493, 496, 492, 494, 492, 496, 494, 494, 494, 493, 494, 493, 494, 494, 494, 494, 494, 494, 494, 493, 494, 494, 495, 492, 492, 491, 496, 495, 494, 496, 493, 494, 496, 492, 496, 497, 492, 498, 496, 494, 496, 492, 511, 484, 491, 499, 491, 500, 502, 483, 497, 489, 496, 504, 485, 496, 497, 489, 499, 501, 495, 494, 494, 502, 491, 496, 500, 488, 494, 500, 504, 503, 489, 505, 485, 494, 521, 484, 494, 515, 482, 480, 490, 495, 488, 504, 505, 493, 507, 491, 487, 510, 485, 500, 504, 478, 494, 498, 500, 515, 486, 484, 488, 497, 493, 497, 481, 483, 518, 500, 493, 488, 490, 482, 491, 499, 493, 507, 491, 499, 488, 494, 494, 474, 491, 496, 500, 488, 506, 499, 494, 513, 502, 497, 483, 508, 490, 519, 516, 504, 485, 526, 448, 495, 490, 498, 495, 486, 496, 492, 500, 504, 494, 514, 500, 488, 495, 493, 486, 507, 487, 492, 508, 495, 486, 495, 500, 495, 496, 493, 494, 496, 492, 497, 491, 496, 497, 502, 487, 504, 495, 489, 491, 499, 491, 493, 489, 492, 493, 495, 494, 496, 491, 493, 494, 485, 494, 496, 493, 502, 496, 489, 493, 501, 493, 493, 498, 496, 501, 501, 494, 496, 486, 496, 491, 488, 498, 493, 533, 486, 493, 495, 492, 492, 481, 493, 504, 492, 492, 491, 499, 498, 495, 491, 500, 493, 489, 502, 492, 492, 493, 492, 502, 501, 489, 490, 493, 498, 497, 493, 500, 491, 489, 494, 490, 510, 495, 499, 496, 491, 486, 489, 489, 494, 493, 497, 498, 490, 497, 494, 496, 491, 494, 499, 496, 497, 497, 497, 492, 494, 497, 502, 493, 497, 495, 494, 493, 495, 494, 497, 490, 499, 495, 495, 492, 496, 494, 503, 501, 489, 493, 497, 495, 489, 495, 493, 494, 492, 488, 491, 493, 493, 494, 499, 491, 493, 495, 493, 492, 497, 493, 490, 497, 504, 484, 500, 494, 494, 494, 494, 497, 491, 492, 496, 495, 494, 525, 489, 488, 492, 492, 495, 493, 497, 494, 499, 494, 500, 494, 495, 491, 507, 489, 494, 494, 499, 487, 492, 492, 495, 494, 491, 495, 491, 494, 508, 493, 492, 496, 503, 494, 488, 512, 494, 499, 488, 502, 490, 497, 502, 487, 491, 494, 494, 493, 493, 495, 493, 501, 493, 492, 493, 498, 498, 494, 493, 494, 492, 494, 496, 490, 499, 500, 490, 490, 506, 482, 494, 495, 489, 500, 495, 493, 497, 489, 493, 493, 501, 493, 497, 495, 492, 496, 493, 500, 489, 489, 495, 492, 498, 493, 493, 489, 491, 505, 484, 501, 487, 494, 500, 483, 493, 498, 494, 505, 492, 496, 489, 493, 496, 493, 494, 493, 494, 493, 498, 490, 502, 491, 496, 496, 500, 486, 492, 491, 492, 499, 487, 493, 490, 493, 493, 494, 497, 497, 491, 494, 491, 499, 500, 496, 493, 489, 493, 491, 498, 485, 495, 489, 493, 497, 501, 484, 501, 497, 496, 490, 496, 495, 494]"
