label,input
right,"[496, 496, 496, 497, 496, 496, 497, 496, 496, 496, 496, 496, 496, 496, 496, 496, 497, 496, 496, 496, 496, 496, 496, 496, 496, 496, 496, 496, 496, 496, 496, 496, 497, 497, 496, 497, 496, 496, 496, 496, 496, 496, 497, 496, 496, 496, 496, 496, 496, 497, 496, 496, 496, 496, 496, 496, 496, 496, 497, 496, 496, 496, 497, 496, 496, 496, 496, 497, 496, 496, 496, 497, 496, 496, 496, 496, 496, 496, 496, 497, 496, 496, 496, 496, 497, 496, 496, 496, 496, 496, 496, 496, 497, 497, 496, 496, 496, 497, 496, 496, 497, 496, 496, 496, 496, 496, 496, 496, 496, 496, 496, 496, 496, 501, 501, 495, 496, 507, 506, 493, 493, 509, 512, 498, 485, 496, 500, 503, 504, 493, 506, 503, 514, 484, 507, 485, 517, 496, 495, 497, 544, 515, 482, 507, 522, 486, 495, 496, 495, 496, 472, 516, 489, 519, 501, 502, 496, 496, 491, 500, 510, 495, 505, 496, 499, 503, 499, 494, 499, 497, 501, 499, 504, 497, 496, 513, 494, 500, 499, 502, 507, 497, 494, 498, 495, 496, 494, 496, 504, 508, 502, 497, 497, 496, 499, 496, 492, 501, 505, 499, 497, 499, 508, 496, 498, 501, 495, 503, 495, 495, 505, 500, 496, 496, 495, 494, 505, 494, 505, 493, 497, 501, 499, 497, 502, 497, 497, 509, 498, 504, 498, 499, 497, 498, 496, 497, 504, 495, 498, 497, 496, 501, 498, 495, 502, 498, 496, 499, 494, 501, 497, 499, 499, 499, 496, 496, 495, 500, 500, 496, 499, 496, 488, 501, 503, 499, 503, 492, 496, 492, 499, 497, 493, 496, 488, 507, 500, 512, 497, 493, 500, 484, 496, 493, 499, 486, 500, 496, 500, 497, 496, 500, 496, 495, 505, 495, 496, 515, 496, 496, 500, 494, 497, 500, 497, 484, 504, 498, 504, 495, 501, 494, 497, 495, 496, 496, 491, 494, 501, 495, 495, 486, 496, 497, 497, 496, 495, 492, 504, 496, 493, 497, 488, 504, 494, 497, 500, 499, 500, 496, 497, 494, 491, 499, 486, 489, 498, 491, 500, 495, 497, 495, 496, 494, 492, 495, 496, 495, 494, 496, 491, 492, 494, 504, 498, 495, 496, 503, 494, 501, 496, 496, 490, 500, 493, 492, 498, 490, 497, 490, 496, 495, 498, 492, 501, 499, 494, 506, 488, 506, 512, 490, 501, 483, 489, 500, 496, 492, 497, 497, 496, 496, 492, 507, 490, 498, 489, 495, 493, 494, 489, 497, 503, 500, 483, 497, 496, 495, 496, 494, 489, 496, 499, 500, 496, 496, 500, 496, 503, 488, 511, 496, 496, 497, 497, 496, 495, 496, 494, 499, 502, 498, 495, 493, 497, 498, 501, 497, 488, 499, 492, 497, 506, 495, 506, 495, 497, 496, 496, 501, 494, 495, 496, 497, 493, 493, 494, 497, 496, 497, 491, 498, 496, 494, 497, 496, 494, 497, 499, 495, 495, 492, 490, 500, 496, 496, 493, 498, 496, 496, 493, 496, 496, 498, 495, 502, 494, 497, 498, 497, 495, 495, 500, 497, 494, 496, 495, 501, 495, 495, 496, 496, 496, 493, 499, 496, 497, 494, 494, 499, 497, 500, 495, 495, 496, 498, 491, 496, 505, 496, 496, 496, 497, 498, 490, 497, 497, 500, 500, 495, 496, 495, 489, 495, 498, 494, 508, 496, 496, 495, 497, 493, 502, 498, 496, 496, 491, 496, 498, 497, 496, 500, 502, 496, 496, 493, 485, 502, 496, 497, 494, 501, 496, 494, 496, 494, 496]"
rest,"[496, 489, 499, 496, 495, 501, 504, 487, 496, 496, 497, 492, 498, 496, 496, 496, 496, 500, 491, 496, 496, 495, 496, 507, 496, 497, 499, 497, 496, 507, 496, 494, 498, 487, 499, 497, 499, 490, 495, 500, 497, 489, 499, 472, 501, 493, 505, 498, 496, 496, 496, 495, 498, 509, 492, 498, 494, 502, 516, 487, 497, 492, 492, 496, 494, 499, 497, 495, 499, 496, 496, 496, 497, 495, 489, 496, 500, 500, 498, 494, 495, 496, 496, 494, 495, 498, 491, 500, 490, 497, 487, 508, 501, 494, 483, 487, 496, 492, 496, 502, 502, 502, 496, 495, 498, 488, 496, 496, 496, 496, 496, 496, 497, 497, 496, 497, 496, 497, 497, 497, 496, 496, 496, 496, 497, 496, 497, 496, 497, 497, 496, 496, 496, 496, 495, 496, 496, 496, 496, 496, 496, 495, 495, 496, 496, 495, 495, 495, 495, 495, 495, 495, 495, 495, 495, 495, 495, 496, 495, 496, 496, 496, 496, 495, 495, 496, 495, 495, 495, 495, 495, 495, 495, 495, 495, 495, 495, 495, 495, 495, 495, 495, 495, 495, 495, 495, 495, 495, 495, 495, 495, 495, 495, 495, 495, 496, 495, 495, 495, 495, 495, 495, 495, 495, 495, 496, 496, 496, 496, 495, 495, 495, 496, 496, 496, 496, 495, 496, 495, 496, 496, 495, 496, 496, 495, 496, 496, 495, 495, 496, 496, 496, 496, 496, 496, 495, 496, 496, 496, 496, 496, 495, 496, 495, 496, 496, 496, 496, 496, 496, 496, 496, 496, 496, 496, 496, 496, 496, 496, 496, 496, 496, 496, 495, 496, 496, 496, 496, 496, 496, 496, 496, 496, 496, 496, 496, 496, 496, 496, 496, 496, 496, 496, 496, 496, 496, 496, 496, 496, 496, 496, 496, 496, 496, 496, 496, 496, 496, 496, 496, 496, 496, 496, 496, 496, 496, 496, 496, 496, 496, 496, 496, 496, 496, 496, 496, 496, 496, 496, 496, 496, 496, 496, 496, 496, 496, 496, 496, 496, 496, 496, 496, 496, 496, 497, 496, 496, 496, 496, 496, 496, 496, 496, 496, 496, 496, 496, 496, 496, 496, 496, 496, 496, 496, 496, 496, 496, 496, 496, 496, 496, 496, 496, 496, 496, 496, 496, 496, 496, 496, 496, 496, 496, 496, 496, 496, 496, 496, 496, 496, 497, 496, 496, 496, 496, 497, 496, 496, 496, 496, 496, 496, 496, 497, 496, 496, 496, 496, 497, 496, 496, 496, 496, 496, 496, 496, 497, 496, 496, 496, 496, 496, 496, 496, 496, 496, 496, 496, 497, 496, 496, 496, 497, 496, 496, 496, 496, 496, 496, 496, 496, 496, 496, 496, 496, 497, 496, 496, 496, 497, 497, 497, 496, 497, 496, 496, 496, 496, 496, 496, 497, 497, 496, 496, 496, 496, 497, 497, 497, 496, 496, 497, 497, 497, 497, 496, 497, 496, 496, 497, 497, 496, 496, 496, 497, 497, 496, 496, 497, 497, 497, 496, 496, 496, 496, 497, 496, 497, 496, 496, 496, 496, 497, 496, 496, 497, 496, 496, 497, 497, 497, 497, 496, 496, 496, 496, 496, 497, 497, 496, 497, 497, 497, 496, 496, 497, 496, 497, 497, 497, 497, 497, 497, 496, 497, 497, 496, 497, 496, 497, 496, 496, 496, 496, 496, 496, 497, 497, 497, 496, 497, 496, 497, 497, 496, 497, 497, 496, 497, 496, 497, 496, 496, 497, 496, 497, 496, 496, 497, 497, 497, 497, 497, 497, 497, 497, 497, 497, 496, 497, 497, 497, 496, 497, 497, 497, 497]"
right,"[497, 497, 496, 496, 497, 496, 496, 497, 496, 496, 497, 496, 497, 496, 496, 497, 497, 497, 497, 496, 497, 496, 497, 497, 497, 497, 497, 497, 496, 497, 496, 497, 497, 496, 496, 497, 496, 496, 496, 497, 496, 497, 496, 496, 496, 497, 497, 496, 496, 497, 497, 497, 497, 496, 496, 496, 497, 496, 496, 496, 496, 496, 497, 496, 496, 496, 497, 497, 496, 496, 497, 496, 496, 496, 497, 496, 496, 497, 498, 496, 496, 496, 496, 496, 496, 496, 496, 496, 496, 496, 497, 497, 497, 496, 496, 496, 497, 496, 496, 497, 496, 496, 497, 496, 497, 496, 497, 497, 497, 496, 497, 496, 497, 496, 496, 497, 496, 497, 496, 496, 497, 497, 496, 497, 497, 496, 496, 496, 496, 497, 496, 497, 497, 497, 496, 497, 496, 497, 497, 497, 496, 496, 497, 496, 496, 497, 497, 496, 498, 497, 493, 499, 497, 496, 502, 497, 495, 496, 495, 505, 488, 490, 501, 505, 496, 487, 491, 502, 497, 497, 496, 496, 496, 496, 497, 498, 499, 498, 489, 494, 514, 490, 498, 480, 493, 485, 514, 511, 522, 494, 492, 499, 493, 491, 481, 518, 495, 523, 472, 502, 509, 504, 501, 499, 497, 500, 497, 491, 485, 525, 495, 507, 497, 500, 494, 499, 491, 506, 492, 495, 500, 488, 496, 499, 499, 503, 502, 508, 493, 506, 512, 502, 497, 495, 500, 500, 498, 496, 496, 507, 491, 497, 496, 491, 510, 493, 500, 491, 521, 489, 515, 501, 477, 494, 505, 495, 495, 499, 498, 497, 497, 501, 491, 499, 494, 496, 502, 492, 499, 518, 506, 511, 498, 490, 488, 502, 506, 491, 493, 480, 493, 511, 495, 497, 495, 506, 496, 496, 496, 496, 503, 494, 496, 504, 491, 495, 491, 490, 500, 508, 501, 502, 499, 498, 497, 501, 506, 495, 501, 488, 499, 505, 496, 494, 499, 496, 500, 495, 495, 493, 496, 496, 496, 500, 497, 495, 498, 493, 508, 496, 500, 495, 505, 504, 501, 496, 496, 501, 509, 496, 495, 495, 496, 493, 504, 491, 492, 494, 495, 495, 501, 489, 508, 499, 495, 496, 499, 501, 496, 499, 498, 489, 493, 491, 489, 501, 486, 509, 502, 499, 493, 499, 494, 490, 508, 501, 496, 492, 500, 496, 506, 494, 487, 505, 498, 493, 495, 498, 499, 496, 498, 490, 500, 493, 495, 496, 496, 499, 499, 489, 498, 498, 489, 494, 497, 497, 491, 489, 491, 495, 495, 492, 496, 494, 505, 491, 496, 496, 493, 495, 496, 498, 489, 495, 496, 493, 493, 501, 489, 490, 504, 496, 497, 498, 496, 496, 496, 496, 495, 503, 490, 499, 496, 501, 496, 496, 496, 495, 499, 499, 496, 495, 492, 495, 496, 495, 493, 494, 507, 495, 492, 499, 503, 504, 494, 496, 496, 495, 495, 494, 485, 496, 500, 489, 503, 491, 499, 493, 497, 493, 495, 497, 499, 505, 496, 497, 495, 500, 490, 493, 493, 495, 485, 502, 494, 499, 501, 492, 496, 499, 493, 496, 496, 498, 502, 495, 499, 492, 515, 494, 496, 496, 497, 492, 500, 494, 495, 493, 498, 497, 498, 495, 494, 496, 504, 497, 495, 495, 495, 489, 503, 493, 496, 494, 495, 489, 495, 497, 498, 496, 499, 499, 494, 493, 494, 504, 496, 494, 496, 496, 496, 497, 495, 495, 496, 498, 495, 495, 494, 494, 494, 499, 497, 494, 501, 495, 493, 495, 496, 496, 494, 495, 498, 493, 498, 494]"
rest,"[496, 496, 502, 497, 495, 496, 493, 497, 494, 497, 496, 496, 494, 496, 495, 496, 489, 493, 495, 497, 496, 495, 495, 499, 496, 494, 496, 497, 496, 498, 496, 495, 496, 495, 496, 495, 495, 495, 495, 491, 500, 495, 496, 495, 495, 500, 493, 496, 497, 497, 508, 498, 496, 495, 495, 493, 504, 493, 492, 492, 496, 499, 498, 499, 497, 497, 495, 496, 499, 494, 496, 496, 496, 496, 496, 498, 494, 494, 494, 496, 494, 496, 496, 496, 495, 493, 496, 497, 487, 498, 500, 494, 497, 496, 492, 500, 498, 499, 494, 495, 495, 496, 499, 500, 495, 491, 496, 494, 494, 492, 496, 495, 496, 495, 496, 496, 500, 495, 495, 495, 496, 495, 495, 495, 495, 495, 495, 495, 496, 496, 496, 495, 496, 496, 495, 496, 496, 496, 496, 496, 496, 496, 496, 496, 496, 495, 495, 495, 495, 495, 495, 495, 495, 495, 495, 494, 494, 495, 494, 494, 494, 494, 494, 494, 494, 495, 495, 495, 495, 494, 494, 495, 495, 495, 495, 495, 495, 495, 495, 494, 495, 495, 495, 495, 495, 495, 495, 495, 495, 495, 495, 495, 495, 495, 495, 495, 495, 495, 495, 496, 496, 495, 495, 495, 496, 496, 496, 496, 495, 495, 496, 495, 495, 495, 495, 496, 495, 495, 496, 496, 495, 495, 495, 495, 495, 497, 496, 495, 496, 495, 496, 495, 496, 496, 496, 496, 495, 496, 496, 496, 496, 496, 496, 496, 496, 496, 495, 495, 495, 496, 496, 496, 496, 496, 496, 495, 495, 496, 496, 496, 496, 495, 496, 496, 495, 496, 495, 496, 497, 495, 495, 496, 496, 496, 495, 496, 496, 496, 496, 495, 496, 496, 496, 496, 496, 496, 495, 496, 496, 496, 496, 495, 496, 495, 496, 495, 496, 496, 496, 496, 496, 495, 497, 496, 495, 495, 496, 496, 496, 496, 496, 495, 496, 496, 496, 496, 496, 496, 496, 496, 496, 495, 496, 496, 496, 496, 496, 496, 496, 495, 496, 495, 497, 496, 496, 496, 495, 496, 496, 496, 496, 496, 496, 496, 496, 496, 496, 496, 496, 496, 496, 495, 495, 496, 495, 496, 496, 496, 496, 497, 496, 496, 496, 496, 496, 496, 496, 496, 496, 496, 497, 496, 496, 496, 496, 496, 496, 496, 496, 496, 496, 495, 496, 496, 496, 496, 496, 496, 496, 496, 496, 497, 495, 496, 496, 496, 496, 496, 497, 496, 496, 496, 496, 496, 496, 496, 496, 496, 496, 496, 496, 496, 496, 496, 496, 496, 496, 496, 496, 496, 495, 496, 496, 496, 496, 496, 496, 496, 496, 496, 496, 496, 497, 495, 496, 496, 496, 496, 497, 496, 496, 496, 496, 496, 496, 496, 496, 496, 496, 496, 496, 496, 496, 496, 496, 497, 496, 496, 496, 496, 496, 497, 496, 496, 496, 496, 496, 496, 496, 496, 496, 496, 496, 497, 497, 496, 496, 497, 496, 496, 496, 496, 496, 496, 496, 496, 496, 496, 496, 496, 496, 496, 496, 496, 496, 496, 496, 496, 496, 496, 496, 496, 496, 496, 496, 496, 496, 496, 496, 496, 496, 496, 496, 496, 496, 495, 496, 496, 496, 496, 496, 496, 496, 496, 496, 496, 496, 496, 496, 496, 496, 496, 496, 497, 496, 496, 496, 496, 496, 496, 496, 496, 496, 495, 496, 495, 496, 497, 496, 496, 496, 496, 496, 496, 496, 496, 496, 496, 496, 496, 496, 495, 496, 496, 496, 496, 496, 496, 496, 496, 496, 496, 496, 496, 496, 496]"
right,"[496, 496, 496, 496, 496, 496, 496, 496, 496, 496, 496, 496, 496, 496, 496, 496, 496, 496, 496, 496, 496, 496, 496, 496, 496, 496, 496, 496, 496, 496, 496, 496, 496, 496, 496, 496, 496, 496, 496, 496, 496, 496, 496, 496, 496, 496, 496, 496, 496, 496, 496, 496, 496, 496, 496, 497, 496, 496, 496, 496, 496, 496, 496, 496, 496, 496, 496, 496, 496, 496, 496, 497, 496, 496, 496, 496, 496, 496, 496, 496, 496, 496, 496, 496, 496, 496, 497, 497, 496, 496, 496, 496, 496, 496, 496, 496, 496, 496, 496, 496, 496, 496, 496, 496, 496, 496, 496, 496, 496, 496, 496, 496, 496, 496, 496, 496, 496, 496, 496, 496, 496, 496, 496, 496, 496, 496, 496, 494, 497, 483, 497, 499, 499, 496, 494, 496, 499, 496, 503, 519, 492, 495, 494, 495, 493, 502, 502, 492, 507, 503, 478, 492, 490, 511, 515, 485, 490, 490, 489, 501, 489, 501, 492, 488, 487, 501, 494, 487, 495, 497, 503, 498, 495, 489, 508, 491, 503, 488, 490, 507, 494, 508, 502, 499, 494, 500, 503, 500, 497, 483, 502, 495, 468, 499, 502, 494, 496, 510, 494, 505, 488, 506, 480, 498, 486, 504, 505, 504, 497, 495, 499, 506, 494, 483, 501, 508, 495, 497, 496, 508, 492, 504, 502, 496, 504, 496, 506, 484, 503, 463, 501, 499, 493, 495, 499, 498, 496, 496, 496, 498, 486, 494, 501, 491, 496, 488, 510, 498, 497, 505, 498, 498, 493, 496, 498, 494, 495, 492, 495, 500, 490, 500, 494, 494, 500, 499, 499, 494, 499, 494, 495, 498, 499, 508, 493, 498, 496, 492, 496, 495, 508, 495, 491, 502, 496, 496, 493, 495, 495, 498, 493, 487, 497, 497, 494, 496, 500, 505, 496, 496, 496, 499, 503, 497, 493, 505, 493, 495, 496, 496, 492, 504, 497, 500, 496, 496, 499, 498, 494, 474, 501, 504, 493, 494, 498, 497, 498, 496, 498, 493, 496, 492, 497, 500, 498, 501, 497, 499, 496, 505, 491, 490, 497, 497, 496, 499, 499, 492, 499, 493, 488, 492, 495, 503, 497, 495, 499, 495, 490, 496, 497, 495, 498, 501, 497, 510, 494, 495, 495, 486, 496, 496, 494, 500, 494, 496, 495, 499, 494, 497, 500, 501, 487, 506, 501, 495, 496, 495, 493, 498, 480, 495, 496, 494, 497, 497, 497, 492, 496, 495, 500, 496, 496, 496, 496, 495, 495, 499, 496, 498, 494, 495, 490, 499, 509, 496, 495, 498, 480, 496, 502, 498, 491, 496, 494, 495, 498, 497, 496, 496, 497, 506, 498, 497, 500, 496, 493, 494, 495, 499, 495, 497, 495, 491, 498, 494, 496, 491, 504, 488, 494, 492, 501, 498, 495, 500, 494, 496, 496, 492, 496, 496, 496, 494, 487, 500, 500, 496, 497, 499, 497, 491, 497, 496, 499, 502, 496, 500, 496, 491, 496, 488, 496, 499, 494, 506, 488, 498, 485, 499, 497, 495, 495, 497, 488, 497, 499, 492, 498, 496, 494, 492, 495, 491, 499, 495, 497, 504, 489, 495, 495, 496, 496, 495, 495, 495, 489, 500, 495, 495, 496, 494, 498, 490, 494, 496, 503, 492, 491, 486, 501, 513, 496, 492, 496, 498, 495, 497, 493, 495, 498, 501, 496, 494, 492, 495, 499, 499, 498, 498, 493, 494, 497, 496, 495, 495, 497, 496, 496, 492, 497, 501, 501, 495, 495, 500, 496, 496, 496, 495, 495, 494, 497, 496, 496, 496, 496]"
rest,"[491, 501, 492, 494, 497, 504, 501, 496, 498, 496, 496, 496, 496, 496, 495, 496, 495, 496, 496, 497, 482, 495, 503, 495, 497, 496, 497, 490, 496, 496, 496, 496, 496, 497, 496, 496, 496, 496, 496, 495, 496, 490, 501, 495, 497, 496, 496, 496, 496, 496, 496, 496, 496, 495, 496, 496, 495, 498, 495, 495, 496, 495, 497, 496, 496, 496, 473, 512, 499, 474, 503, 514, 499, 495, 494, 495, 495, 496, 495, 496, 495, 493, 495, 488, 479, 498, 493, 497, 510, 498, 494, 496, 495, 500, 495, 496, 495, 496, 494, 500, 494, 496, 503, 505, 505, 494, 479, 486, 487, 506, 495, 498, 496, 496, 496, 496, 496, 495, 496, 496, 496, 496, 496, 496, 496, 496, 496, 496, 496, 497, 496, 496, 496, 497, 496, 496, 496, 496, 496, 496, 496, 496, 496, 496, 496, 495, 495, 496, 496, 495, 495, 496, 495, 495, 495, 495, 495, 495, 496, 495, 496, 496, 496, 496, 496, 496, 496, 496, 496, 496, 496, 496, 496, 496, 496, 496, 496, 496, 496, 496, 496, 496, 496, 496, 496, 496, 496, 496, 496, 496, 496, 496, 496, 495, 496, 496, 496, 496, 496, 496, 496, 496, 496, 496, 496, 496, 496, 496, 496, 496, 496, 495, 496, 496, 496, 496, 496, 496, 496, 496, 496, 496, 496, 496, 496, 496, 496, 496, 496, 496, 496, 496, 496, 496, 496, 496, 496, 496, 496, 496, 496, 496, 496, 496, 496, 496, 496, 496, 496, 496, 496, 496, 496, 496, 496, 496, 496, 496, 496, 496, 496, 496, 496, 496, 496, 496, 496, 496, 496, 496, 496, 496, 496, 496, 496, 496, 496, 496, 496, 496, 496, 496, 496, 496, 496, 496, 496, 496, 496, 496, 496, 496, 496, 496, 496, 496, 496, 496, 496, 496, 496, 496, 496, 496, 496, 496, 496, 496, 496, 496, 496, 496, 496, 496, 496, 496, 496, 496, 496, 496, 496, 496, 496, 496, 496, 496, 496, 496, 496, 496, 496, 496, 496, 496, 496, 496, 496, 496, 496, 496, 496, 496, 496, 496, 496, 496, 496, 496, 496, 496, 496, 496, 496, 496, 496, 496, 496, 496, 496, 496, 496, 496, 496, 496, 496, 496, 496, 496, 496, 496, 496, 496, 496, 496, 496, 496, 496, 496, 496, 496, 496, 496, 496, 496, 496, 496, 496, 496, 496, 496, 496, 496, 496, 496, 496, 496, 496, 496, 496, 496, 496, 496, 496, 496, 496, 496, 496, 496, 497, 496, 496, 497, 496, 497, 496, 496, 496, 496, 496, 496, 496, 496, 496, 496, 496, 496, 496, 496, 496, 496, 496, 496, 496, 496, 496, 496, 496, 496, 496, 496, 496, 496, 496, 496, 496, 496, 497, 496, 497, 496, 496, 496, 496, 496, 496, 496, 496, 496, 496, 496, 496, 496, 496, 497, 496, 496, 497, 496, 496, 496, 496, 497, 496, 496, 497, 496, 496, 496, 496, 497, 496, 496, 496, 496, 496, 496, 496, 496, 496, 496, 496, 496, 496, 496, 497, 496, 496, 497, 496, 496, 496, 496, 496, 496, 496, 496, 496, 496, 496, 496, 497, 496, 496, 496, 496, 496, 496, 496, 496, 496, 496, 496, 496, 496, 496, 496, 497, 496, 496, 496, 496, 496, 496, 496, 496, 496, 496, 496, 496, 496, 496, 496, 497, 496, 497, 496, 496, 497, 496, 496, 496, 496, 496, 496, 496, 496, 496, 496, 496, 496, 496, 496, 496, 497, 496, 496, 497, 496, 496, 496, 496, 496, 496, 497, 496, 496, 496]"
right,"[496, 496, 496, 496, 496, 496, 496, 496, 496, 496, 496, 496, 496, 496, 496, 496, 496, 496, 496, 496, 496, 496, 496, 496, 496, 497, 496, 497, 496, 496, 497, 496, 496, 496, 496, 496, 496, 496, 496, 497, 496, 496, 496, 496, 496, 496, 496, 496, 496, 496, 496, 496, 496, 496, 497, 496, 496, 496, 496, 497, 496, 496, 496, 496, 496, 496, 496, 496, 496, 496, 496, 496, 496, 496, 496, 496, 496, 497, 496, 496, 496, 497, 496, 496, 496, 497, 496, 496, 496, 496, 496, 496, 496, 496, 496, 496, 496, 496, 496, 496, 496, 496, 496, 496, 497, 496, 497, 496, 496, 496, 496, 496, 496, 496, 496, 496, 497, 496, 496, 496, 490, 494, 501, 491, 499, 503, 503, 495, 492, 494, 514, 498, 511, 491, 489, 480, 498, 494, 492, 494, 497, 525, 502, 503, 482, 472, 517, 494, 501, 513, 481, 478, 524, 508, 503, 487, 487, 502, 490, 477, 506, 498, 496, 499, 496, 471, 488, 503, 500, 490, 503, 492, 504, 498, 480, 516, 497, 498, 495, 506, 494, 503, 497, 497, 477, 501, 497, 496, 492, 487, 493, 502, 495, 497, 492, 498, 493, 504, 493, 499, 488, 500, 500, 500, 490, 511, 500, 490, 506, 498, 492, 502, 495, 513, 500, 504, 489, 495, 501, 501, 489, 501, 499, 490, 516, 495, 503, 502, 494, 498, 497, 499, 494, 489, 500, 513, 496, 495, 495, 501, 499, 497, 493, 511, 495, 496, 496, 496, 498, 502, 497, 493, 496, 499, 482, 495, 498, 497, 496, 485, 494, 497, 495, 502, 499, 498, 495, 500, 493, 500, 490, 496, 496, 498, 497, 496, 496, 498, 492, 489, 505, 495, 496, 494, 498, 497, 491, 497, 495, 494, 505, 496, 494, 493, 500, 501, 494, 494, 504, 495, 496, 500, 488, 504, 498, 494, 499, 496, 496, 496, 494, 504, 493, 496, 498, 495, 496, 496, 495, 497, 497, 495, 496, 489, 496, 497, 495, 496, 498, 497, 496, 496, 496, 493, 496, 498, 496, 496, 495, 495, 493, 496, 491, 496, 495, 499, 494, 496, 494, 500, 496, 496, 497, 495, 496, 495, 496, 497, 488, 493, 490, 495, 501, 496, 491, 496, 491, 497, 491, 496, 495, 502, 494, 499, 495, 500, 499, 496, 499, 484, 498, 494, 496, 496, 492, 497, 488, 494, 498, 493, 495, 494, 490, 498, 493, 492, 496, 488, 498, 496, 492, 496, 496, 498, 495, 490, 493, 493, 495, 496, 492, 496, 494, 493, 499, 498, 496, 497, 500, 496, 495, 496, 500, 496, 490, 496, 494, 489, 499, 493, 496, 496, 495, 499, 496, 496, 489, 490, 494, 495, 500, 496, 495, 497, 495, 497, 496, 484, 504, 495, 498, 499, 497, 495, 496, 492, 500, 495, 498, 495, 504, 496, 496, 496, 499, 497, 489, 497, 491, 500, 496, 496, 494, 494, 493, 498, 495, 495, 496, 496, 497, 495, 487, 501, 497, 496, 491, 501, 505, 497, 496, 495, 494, 498, 499, 489, 496, 499, 493, 500, 499, 499, 493, 496, 496, 494, 496, 496, 495, 497, 496, 493, 501, 494, 498, 495, 499, 497, 496, 495, 494, 496, 493, 496, 494, 496, 495, 491, 495, 493, 496, 491, 497, 496, 495, 496, 496, 493, 495, 495, 496, 497, 496, 496, 496, 496, 496, 493, 496, 482, 495, 494, 499, 495, 501, 493, 497, 496, 491, 504, 500, 497, 496, 495, 496, 494, 496, 496, 496, 496, 496, 495, 492, 495, 501, 496, 500]"
rest,"[499, 497, 497, 496, 495, 492, 497, 486, 495, 495, 497, 495, 495, 498, 491, 494, 495, 500, 495, 495, 496, 496, 496, 496, 496, 492, 500, 496, 490, 490, 497, 496, 498, 496, 496, 496, 492, 498, 495, 497, 491, 486, 491, 493, 497, 498, 496, 494, 495, 500, 498, 477, 499, 480, 493, 494, 489, 496, 501, 492, 497, 491, 482, 497, 500, 493, 508, 500, 501, 492, 489, 497, 498, 496, 495, 498, 494, 498, 495, 481, 516, 495, 496, 496, 483, 495, 467, 502, 499, 495, 496, 496, 496, 496, 496, 496, 496, 496, 496, 496, 496, 496, 496, 496, 496, 496, 496, 496, 497, 496, 496, 496, 496, 496, 496, 496, 496, 496, 496, 496, 495, 496, 496, 495, 495, 496, 496, 496, 496, 496, 495, 495, 495, 496, 495, 496, 496, 497, 496, 496, 496, 496, 496, 496, 496, 496, 496, 496, 496, 496, 496, 496, 496, 496, 496, 496, 496, 496, 496, 496, 496, 496, 496, 496, 496, 496, 496, 496, 496, 496, 496, 496, 496, 496, 496, 496, 496, 496, 496, 496, 496, 496, 496, 496, 496, 496, 496, 496, 496, 496, 496, 496, 496, 496, 496, 496, 496, 496, 496, 496, 496, 496, 496, 496, 496, 496, 496, 496, 496, 496, 496, 496, 496, 496, 496, 496, 496, 496, 496, 496, 496, 496, 496, 496, 496, 496, 496, 496, 496, 496, 496, 496, 496, 496, 496, 496, 496, 496, 496, 496, 496, 496, 496, 496, 496, 496, 495, 496, 496, 496, 496, 496, 496, 496, 496, 496, 496, 496, 496, 496, 496, 496, 495, 495, 496, 496, 496, 496, 496, 495, 496, 496, 496, 496, 496, 495, 495, 496, 496, 496, 495, 495, 496, 496, 496, 496, 496, 496, 496, 496, 495, 496, 496, 496, 496, 496, 495, 495, 495, 496, 495, 496, 496, 496, 496, 496, 496, 496, 496, 496, 496, 496, 496, 496, 496, 496, 496, 496, 496, 495, 496, 495, 496, 496, 495, 495, 496, 496, 496, 496, 496, 495, 495, 496, 496, 496, 496, 496, 495, 495, 496, 496, 496, 496, 496, 496, 496, 496, 496, 496, 496, 495, 496, 496, 496, 496, 496, 496, 495, 495, 496, 496, 496, 496, 496, 496, 496, 496, 496, 496, 496, 496, 496, 496, 496, 496, 496, 496, 496, 496, 496, 496, 495, 496, 496, 496, 496, 496, 496, 495, 496, 496, 496, 496, 496, 496, 496, 496, 496, 496, 496, 496, 496, 496, 495, 496, 496, 496, 496, 496, 496, 496, 496, 496, 496, 496, 496, 496, 495, 496, 496, 496, 496, 495, 496, 496, 496, 495, 496, 496, 496, 496, 496, 496, 496, 496, 496, 496, 496, 496, 496, 496, 496, 496, 496, 496, 496, 496, 496, 496, 496, 496, 496, 496, 496, 496, 496, 496, 496, 496, 496, 496, 496, 496, 496, 496, 496, 496, 496, 496, 496, 496, 496, 496, 496, 496, 496, 496, 496, 496, 496, 496, 496, 496, 496, 496, 496, 495, 496, 496, 496, 496, 496, 496, 496, 496, 496, 496, 496, 496, 495, 496, 495, 496, 496, 496, 496, 496, 495, 496, 496, 496, 496, 496, 496, 496, 496, 495, 495, 496, 496, 496, 496, 496, 496, 495, 496, 496, 495, 496, 496, 496, 496, 496, 496, 495, 496, 496, 496, 496, 496, 496, 496, 496, 496, 496, 496, 496, 495, 496, 496, 496, 496, 496, 496, 496, 496, 496, 496, 496, 496, 496, 496, 495, 496, 496, 496, 495, 496, 496, 496, 496, 496, 495, 496, 496]"
right,"[496, 496, 495, 496, 496, 495, 496, 496, 496, 496, 496, 496, 495, 496, 496, 496, 496, 496, 496, 496, 496, 496, 496, 496, 496, 496, 496, 496, 496, 496, 496, 496, 496, 496, 496, 496, 496, 496, 496, 495, 496, 495, 496, 496, 496, 496, 496, 496, 496, 496, 496, 496, 496, 496, 496, 496, 496, 496, 496, 496, 496, 496, 496, 495, 496, 496, 496, 496, 496, 496, 496, 496, 496, 496, 496, 496, 496, 496, 496, 496, 496, 496, 496, 496, 496, 496, 496, 496, 496, 496, 496, 496, 496, 496, 496, 496, 496, 495, 496, 496, 496, 496, 496, 495, 495, 496, 496, 495, 496, 496, 496, 496, 496, 496, 496, 496, 496, 496, 496, 496, 496, 496, 496, 496, 496, 496, 496, 496, 496, 496, 496, 496, 496, 496, 496, 496, 496, 496, 496, 496, 496, 496, 496, 496, 496, 496, 496, 496, 496, 496, 496, 495, 496, 496, 496, 495, 496, 496, 496, 496, 496, 496, 496, 496, 496, 496, 496, 496, 496, 496, 496, 496, 496, 496, 496, 496, 496, 496, 496, 496, 496, 496, 496, 496, 496, 496, 495, 496, 496, 496, 496, 496, 496, 496, 496, 496, 496, 496, 496, 496, 496, 496, 496, 496, 496, 496, 496, 496, 496, 496, 496, 495, 493, 497, 496, 496, 496, 496, 496, 496, 491, 494, 497, 496, 498, 496, 497, 496, 496, 496, 493, 490, 496, 501, 496, 490, 491, 502, 497, 498, 496, 496, 498, 497, 495, 496, 498, 500, 494, 484, 504, 493, 510, 496, 495, 487, 495, 489, 488, 505, 498, 505, 490, 464, 495, 505, 490, 510, 504, 479, 468, 506, 467, 519, 493, 524, 493, 517, 496, 486, 487, 495, 503, 478, 506, 498, 493, 486, 488, 494, 483, 510, 502, 498, 500, 499, 495, 488, 494, 498, 485, 496, 498, 495, 498, 493, 506, 501, 494, 493, 489, 512, 493, 504, 491, 498, 492, 498, 498, 498, 511, 487, 504, 492, 505, 503, 496, 502, 496, 496, 488, 500, 490, 495, 486, 494, 497, 505, 497, 502, 492, 503, 492, 496, 496, 501, 503, 501, 495, 506, 495, 500, 487, 499, 492, 503, 497, 484, 514, 495, 502, 496, 499, 503, 502, 501, 494, 496, 494, 493, 497, 497, 494, 490, 499, 496, 495, 497, 491, 496, 500, 498, 496, 488, 500, 495, 495, 495, 499, 491, 493, 499, 480, 499, 502, 494, 499, 495, 496, 496, 490, 501, 478, 502, 495, 495, 496, 492, 498, 497, 496, 494, 502, 493, 479, 500, 496, 496, 501, 492, 500, 496, 502, 496, 491, 492, 498, 508, 491, 492, 496, 498, 490, 502, 491, 504, 495, 498, 495, 496, 494, 484, 498, 492, 497, 495, 495, 496, 497, 496, 500, 494, 494, 495, 498, 492, 495, 496, 495, 493, 495, 500, 490, 496, 494, 496, 495, 496, 490, 496, 496, 495, 496, 495, 497, 492, 495, 496, 493, 495, 503, 495, 497, 493, 501, 494, 495, 494, 497, 493, 493, 500, 494, 494, 496, 495, 489, 495, 495, 492, 495, 496, 499, 490, 496, 499, 493, 496, 492, 494, 491, 497, 495, 494, 497, 493, 497, 495, 496, 490, 495, 496, 495, 491, 497, 495, 496, 495, 495, 495, 493, 495, 497, 495, 498, 495, 494, 498, 495, 496, 493, 504, 494, 499, 497, 493, 496, 492, 496, 488, 495, 493, 498, 499, 496, 499, 495, 496, 496, 496, 485, 503, 495, 495, 492, 495, 496, 497, 494, 495, 499, 497, 498, 496, 495, 496]"
rest,"[499, 495, 492, 496, 496, 495, 492, 495, 495, 496, 490, 494, 494, 497, 496, 496, 494, 488, 501, 496, 498, 494, 494, 494, 497, 497, 494, 495, 492, 493, 495, 495, 494, 494, 494, 496, 494, 494, 495, 494, 499, 495, 493, 491, 495, 497, 495, 495, 494, 496, 492, 498, 497, 493, 495, 495, 496, 498, 496, 494, 496, 496, 496, 498, 493, 494, 496, 495, 491, 495, 494, 495, 493, 494, 497, 495, 498, 495, 495, 496, 490, 498, 497, 496, 495, 501, 496, 498, 495, 493, 495, 495, 498, 495, 496, 496, 500, 495, 495, 496, 494, 496, 498, 494, 496, 496, 495, 495, 498, 496, 496, 495, 496, 495, 493, 495, 491, 498, 496, 495, 495, 496, 495, 495, 496, 496, 496, 494, 495, 496, 496, 497, 495, 496, 497, 495, 495, 495, 495, 495, 495, 495, 493, 494, 495, 495, 494, 494, 495, 495, 495, 495, 494, 494, 495, 494, 495, 495, 496, 495, 495, 495, 495, 494, 495, 495, 496, 496, 496, 495, 496, 496, 495, 495, 496, 496, 496, 496, 495, 495, 495, 495, 496, 496, 497, 495, 496, 495, 495, 496, 496, 496, 496, 496, 496, 496, 495, 495, 496, 496, 496, 495, 495, 496, 496, 496, 496, 496, 496, 495, 496, 496, 496, 496, 496, 496, 496, 495, 497, 496, 495, 495, 496, 495, 496, 496, 496, 496, 495, 496, 496, 496, 496, 496, 496, 496, 495, 495, 496, 496, 496, 496, 496, 496, 496, 496, 496, 496, 495, 496, 496, 496, 495, 496, 495, 495, 496, 496, 496, 495, 496, 496, 496, 496, 496, 495, 496, 496, 496, 496, 495, 496, 496, 496, 496, 496, 496, 496, 496, 496, 496, 496, 495, 496, 495, 495, 495, 496, 496, 496, 496, 496, 496, 496, 496, 495, 495, 496, 496, 495, 495, 496, 496, 496, 496, 496, 496, 496, 496, 496, 496, 495, 496, 496, 496, 496, 496, 496, 496, 496, 495, 495, 496, 496, 496, 496, 496, 496, 496, 496, 496, 496, 496, 495, 496, 496, 496, 495, 495, 496, 496, 495, 496, 496, 496, 496, 496, 496, 495, 496, 496, 496, 496, 496, 496, 495, 496, 496, 496, 496, 496, 496, 495, 496, 496, 496, 496, 495, 496, 496, 496, 495, 496, 496, 496, 495, 496, 496, 495, 496, 495, 496, 495, 496, 496, 495, 496, 496, 495, 496, 496, 496, 496, 496, 496, 495, 496, 496, 495, 496, 496, 496, 496, 495, 496, 495, 496, 495, 496, 496, 496, 496, 496, 495, 496, 496, 496, 495, 496, 496, 496, 496, 496, 496, 496, 495, 495, 495, 496, 496, 496, 496, 496, 496, 496, 496, 496, 496, 496, 496, 496, 496, 495, 496, 496, 496, 496, 495, 496, 496, 496, 496, 496, 495, 496, 496, 496, 496, 496, 496, 496, 496, 496, 496, 496, 496, 496, 496, 496, 496, 496, 495, 495, 496, 496, 495, 495, 496, 495, 496, 496, 496, 496, 496, 496, 496, 495, 496, 496, 496, 495, 496, 496, 496, 495, 496, 496, 496, 496, 496, 496, 496, 496, 496, 495, 496, 496, 496, 496, 496, 496, 495, 496, 496, 496, 496, 496, 496, 496, 496, 496, 495, 496, 496, 496, 496, 496, 496, 496, 496, 496, 496, 496, 496, 496, 496, 496, 496, 496, 496, 496, 496, 495, 496, 496, 496, 496, 496, 496, 496, 496, 496, 496, 496, 496, 496, 496, 495, 496, 495, 496, 496, 495, 496, 496, 495, 496, 495, 496, 496, 496, 496, 495, 496, 496, 496, 496]"
right,"[496, 495, 495, 496, 496, 496, 496, 496, 496, 495, 496, 496, 496, 496, 495, 496, 496, 496, 496, 496, 495, 496, 495, 495, 495, 496, 496, 495, 495, 496, 496, 496, 495, 495, 496, 496, 496, 495, 496, 496, 496, 496, 496, 496, 496, 496, 496, 496, 495, 495, 496, 496, 496, 496, 496, 496, 495, 496, 496, 496, 496, 495, 496, 496, 496, 496, 495, 496, 496, 496, 496, 496, 496, 496, 496, 496, 496, 496, 496, 496, 496, 496, 496, 495, 495, 495, 496, 496, 496, 496, 496, 496, 495, 496, 496, 495, 495, 496, 496, 495, 496, 496, 496, 496, 495, 496, 495, 496, 494, 495, 494, 496, 496, 496, 496, 496, 496, 496, 496, 498, 498, 495, 497, 495, 496, 496, 496, 496, 495, 496, 495, 491, 494, 497, 496, 496, 496, 501, 494, 496, 495, 496, 501, 498, 494, 491, 496, 495, 496, 491, 497, 500, 493, 483, 506, 498, 507, 495, 495, 495, 498, 492, 482, 486, 500, 498, 510, 489, 479, 527, 511, 500, 465, 512, 499, 503, 498, 487, 476, 496, 502, 495, 524, 512, 498, 471, 490, 500, 496, 499, 496, 493, 493, 507, 502, 499, 516, 497, 495, 501, 503, 497, 498, 495, 499, 487, 487, 499, 497, 508, 502, 498, 496, 482, 502, 500, 496, 492, 496, 502, 495, 493, 502, 499, 496, 503, 496, 494, 501, 500, 496, 499, 498, 495, 498, 496, 495, 487, 492, 495, 499, 496, 495, 499, 503, 500, 496, 496, 496, 496, 494, 494, 496, 491, 498, 497, 496, 496, 500, 495, 502, 491, 504, 500, 481, 499, 498, 497, 496, 497, 491, 494, 495, 501, 485, 502, 497, 496, 498, 494, 496, 496, 492, 494, 490, 498, 499, 497, 496, 500, 496, 502, 495, 497, 496, 494, 494, 495, 489, 502, 494, 499, 498, 502, 497, 492, 495, 497, 494, 491, 496, 499, 497, 495, 498, 495, 496, 497, 495, 496, 496, 496, 499, 494, 498, 494, 497, 495, 498, 497, 496, 496, 498, 498, 494, 490, 496, 494, 496, 497, 497, 494, 495, 505, 497, 495, 495, 496, 492, 498, 494, 496, 495, 494, 496, 495, 496, 495, 488, 496, 494, 494, 499, 498, 503, 500, 491, 496, 494, 494, 496, 496, 497, 501, 498, 496, 498, 495, 495, 495, 495, 495, 495, 496, 497, 498, 493, 494, 495, 495, 496, 492, 496, 496, 495, 495, 492, 499, 496, 498, 495, 496, 498, 491, 497, 495, 496, 496, 496, 495, 495, 494, 491, 492, 499, 500, 495, 495, 496, 495, 496, 495, 493, 497, 494, 494, 498, 496, 496, 494, 495, 496, 495, 495, 495, 501, 497, 490, 500, 493, 496, 495, 495, 495, 496, 496, 495, 493, 496, 494, 494, 493, 498, 494, 496, 495, 495, 496, 499, 491, 495, 496, 494, 495, 496, 493, 494, 496, 491, 497, 496, 495, 495, 496, 496, 496, 494, 496, 496, 496, 493, 496, 491, 495, 497, 498, 493, 498, 496, 495, 495, 495, 495, 497, 499, 496, 496, 495, 495, 495, 494, 496, 494, 490, 497, 496, 495, 496, 495, 496, 495, 496, 496, 495, 494, 494, 496, 493, 498, 488, 499, 495, 495, 495, 497, 494, 496, 492, 494, 494, 496, 496, 495, 497, 494, 496, 494, 496, 495, 497, 494, 496, 495, 495, 498, 495, 494, 491, 496, 494, 494, 494, 496, 496, 496, 496, 494, 499, 495, 495, 494, 495, 494, 493, 496, 496, 497, 496, 498, 496, 495, 494, 491, 499, 495, 494, 496]"
rest,"[496, 495, 496, 496, 494, 498, 495, 498, 494, 495, 494, 493, 496, 495, 496, 495, 494, 497, 497, 495, 495, 494, 494, 496, 494, 496, 496, 495, 496, 496, 497, 495, 495, 496, 494, 493, 492, 494, 499, 494, 495, 493, 497, 495, 495, 496, 496, 493, 495, 495, 496, 491, 496, 495, 496, 495, 496, 492, 492, 495, 496, 493, 496, 497, 495, 495, 488, 495, 494, 497, 494, 498, 496, 495, 496, 494, 497, 497, 495, 494, 495, 491, 496, 496, 500, 492, 495, 497, 495, 495, 496, 495, 495, 493, 497, 496, 495, 497, 496, 495, 497, 496, 494, 495, 497, 491, 493, 495, 496, 496, 496, 496, 495, 495, 496, 495, 496, 495, 496, 496, 495, 495, 496, 495, 495, 496, 496, 496, 494, 495, 496, 495, 496, 495, 495, 495, 495, 495, 496, 495, 495, 495, 494, 495, 495, 495, 495, 495, 494, 495, 495, 495, 494, 495, 494, 495, 494, 495, 495, 495, 495, 495, 494, 494, 495, 495, 495, 495, 495, 495, 495, 495, 495, 495, 495, 495, 495, 495, 495, 496, 495, 495, 495, 495, 495, 495, 495, 495, 495, 496, 495, 495, 495, 495, 495, 495, 495, 495, 495, 495, 496, 495, 496, 495, 496, 495, 495, 495, 496, 495, 495, 495, 495, 495, 495, 496, 496, 496, 495, 495, 496, 495, 496, 496, 495, 495, 496, 495, 495, 495, 495, 496, 496, 495, 495, 495, 495, 495, 495, 495, 496, 495, 495, 496, 495, 496, 495, 496, 495, 496, 496, 495, 495, 496, 495, 496, 495, 496, 496, 495, 496, 495, 495, 495, 495, 496, 495, 495, 496, 496, 496, 496, 495, 496, 495, 496, 496, 496, 496, 496, 496, 495, 496, 496, 496, 496, 495, 495, 495, 495, 496, 495, 495, 495, 496, 496, 496, 495, 495, 495, 495, 496, 495, 496, 496, 495, 495, 495, 496, 496, 496, 496, 496, 496, 496, 496, 496, 496, 495, 496, 495, 496, 496, 496, 495, 495, 496, 496, 496, 496, 496, 495, 496, 496, 496, 496, 495, 495, 495, 496, 495, 496, 496, 495, 495, 496, 495, 496, 495, 495, 496, 496, 496, 495, 496, 496, 495, 495, 496, 495, 495, 496, 495, 496, 495, 496, 495, 496, 496, 496, 495, 496, 496, 496, 496, 495, 496, 496, 496, 496, 496, 496, 496, 496, 496, 495, 496, 495, 495, 495, 495, 495, 495, 495, 496, 496, 496, 496, 495, 495, 495, 496, 495, 495, 495, 495, 495, 495, 495, 496, 496, 495, 495, 496, 495, 495, 495, 495, 495, 495, 496, 495, 496, 496, 496, 495, 496, 496, 495, 495, 496, 496, 495, 495, 495, 496, 495, 495, 495, 495, 495, 495, 495, 495, 496, 496, 495, 495, 495, 495, 496, 496, 496, 495, 495, 495, 496, 496, 496, 495, 496, 495, 495, 495, 496, 495, 495, 495, 494, 496, 496, 496, 496, 496, 495, 495, 495, 496, 495, 495, 496, 495, 495, 495, 495, 494, 495, 496, 496, 496, 496, 495, 495, 496, 496, 495, 496, 495, 496, 496, 496, 496, 496, 496, 495, 495, 495, 495, 495, 496, 495, 495, 495, 496, 495, 496, 495, 495, 495, 496, 496, 495, 496, 496, 496, 495, 495, 496, 496, 496, 495, 496, 495, 496, 496, 496, 496, 495, 496, 494, 495, 496, 495, 496, 496, 496, 495, 496, 496, 495, 495, 496, 495, 495, 495, 495, 495, 496, 496, 495, 495, 496, 495, 495, 496, 496, 496, 496, 495, 495, 495, 495, 495, 496, 496, 496, 496]"
right,"[495, 496, 496, 496, 495, 496, 495, 496, 495, 496, 496, 496, 496, 496, 496, 495, 495, 495, 495, 496, 496, 496, 496, 496, 496, 495, 496, 495, 495, 496, 496, 495, 495, 496, 496, 496, 496, 496, 496, 495, 496, 495, 495, 495, 495, 496, 495, 495, 495, 496, 496, 496, 495, 496, 495, 496, 495, 496, 496, 495, 496, 496, 496, 496, 495, 495, 496, 495, 496, 496, 496, 496, 496, 495, 496, 496, 496, 496, 495, 496, 496, 495, 495, 495, 496, 496, 496, 496, 496, 495, 495, 495, 495, 495, 495, 496, 496, 496, 495, 495, 495, 495, 496, 496, 495, 495, 495, 496, 496, 496, 495, 496, 496, 495, 495, 495, 496, 495, 496, 496, 495, 496, 495, 496, 496, 496, 495, 494, 489, 493, 490, 505, 495, 501, 500, 492, 490, 494, 504, 501, 496, 495, 495, 489, 492, 503, 498, 495, 485, 494, 505, 500, 495, 499, 497, 498, 498, 498, 499, 498, 490, 504, 489, 485, 509, 501, 496, 495, 498, 502, 497, 491, 496, 508, 496, 498, 495, 497, 501, 496, 472, 502, 496, 491, 497, 497, 496, 500, 495, 501, 499, 498, 493, 494, 497, 495, 502, 497, 499, 492, 496, 499, 497, 489, 499, 488, 505, 496, 497, 500, 496, 496, 499, 495, 497, 495, 498, 499, 500, 495, 496, 493, 496, 506, 498, 497, 496, 496, 494, 496, 492, 498, 491, 495, 498, 496, 496, 499, 495, 497, 496, 496, 497, 494, 497, 495, 497, 496, 496, 496, 499, 501, 486, 501, 495, 496, 496, 496, 495, 496, 496, 494, 498, 498, 497, 494, 496, 490, 497, 496, 499, 495, 494, 493, 497, 497, 495, 496, 495, 495, 496, 497, 496, 496, 499, 501, 493, 492, 490, 499, 496, 490, 503, 495, 495, 496, 492, 496, 495, 492, 495, 495, 497, 496, 493, 500, 491, 489, 501, 495, 497, 496, 492, 493, 503, 495, 495, 495, 495, 496, 497, 496, 491, 496, 497, 489, 493, 495, 496, 494, 492, 497, 495, 497, 497, 492, 495, 493, 495, 496, 494, 494, 495, 496, 495, 492, 496, 495, 495, 495, 493, 493, 500, 496, 495, 497, 495, 492, 497, 494, 495, 495, 496, 495, 493, 495, 495, 490, 503, 500, 492, 495, 494, 495, 497, 493, 495, 496, 494, 496, 501, 496, 497, 494, 493, 493, 495, 496, 496, 494, 495, 495, 497, 501, 496, 490, 494, 496, 495, 494, 496, 494, 495, 499, 497, 497, 494, 496, 495, 496, 491, 496, 494, 493, 493, 497, 498, 495, 497, 493, 492, 496, 496, 496, 496, 497, 495, 495, 496, 495, 496, 494, 496, 495, 496, 494, 494, 496, 496, 495, 496, 498, 497, 494, 495, 496, 496, 492, 494, 495, 496, 496, 495, 494, 498, 494, 494, 500, 496, 497, 495, 494, 495, 496, 495, 496, 494, 496, 496, 489, 495, 496, 499, 495, 495, 496, 495, 494, 496, 496, 497, 496, 494, 496, 494, 496, 496, 495, 496, 496, 496, 494, 496, 497, 494, 497, 495, 495, 495, 500, 496, 496, 493, 498, 496, 496, 496, 495, 497, 494, 495, 498, 493, 494, 495, 497, 493, 495, 496, 496, 496, 496, 497, 495, 495, 494, 496, 499, 495, 498, 494, 496, 497, 493, 496, 492, 494, 496, 495, 496, 493, 503, 496, 494, 496, 499, 495, 496, 494, 496, 500, 495, 496, 498, 497, 496, 492, 494, 494, 493, 491, 501, 496, 495, 497, 496, 497, 496, 488, 498, 493, 496, 494, 495, 495, 492]"
rest,"[499, 497, 491, 502, 495, 499, 498, 495, 495, 498, 495, 495, 496, 500, 495, 494, 496, 494, 499, 494, 493, 494, 496, 494, 497, 499, 494, 496, 495, 496, 495, 494, 494, 491, 499, 494, 495, 495, 499, 495, 496, 490, 496, 491, 495, 500, 495, 497, 497, 496, 495, 497, 495, 496, 498, 493, 499, 501, 498, 494, 496, 498, 496, 498, 496, 496, 497, 495, 492, 501, 497, 494, 495, 495, 495, 497, 499, 493, 494, 494, 496, 497, 495, 495, 495, 496, 497, 496, 495, 496, 496, 495, 494, 494, 502, 496, 495, 495, 496, 494, 496, 497, 494, 494, 498, 495, 496, 499, 495, 496, 496, 497, 492, 495, 496, 495, 496, 495, 493, 497, 497, 494, 496, 497, 493, 496, 496, 496, 495, 495, 495, 497, 496, 496, 495, 494, 501, 494, 495, 492, 496, 495, 497, 496, 496, 496, 496, 495, 496, 496, 496, 496, 496, 496, 496, 495, 496, 495, 496, 495, 495, 496, 496, 496, 495, 495, 496, 496, 495, 495, 495, 496, 496, 495, 495, 495, 495, 495, 495, 495, 495, 495, 495, 495, 495, 494, 494, 495, 495, 494, 495, 495, 495, 495, 495, 494, 495, 495, 494, 494, 495, 495, 495, 495, 495, 495, 495, 495, 495, 495, 495, 495, 495, 495, 495, 496, 495, 495, 495, 495, 495, 496, 495, 496, 495, 495, 496, 495, 495, 495, 496, 495, 496, 496, 496, 495, 495, 495, 495, 496, 495, 496, 495, 496, 496, 495, 496, 495, 496, 496, 495, 495, 496, 496, 495, 496, 496, 495, 495, 496, 496, 496, 495, 496, 495, 496, 496, 496, 496, 496, 495, 496, 496, 496, 495, 495, 496, 496, 496, 495, 495, 495, 495, 495, 495, 496, 496, 496, 496, 496, 496, 495, 495, 496, 496, 495, 496, 496, 496, 496, 496, 496, 496, 496, 496, 495, 496, 496, 496, 495, 495, 495, 495, 495, 496, 496, 496, 495, 496, 495, 495, 496, 495, 496, 496, 495, 496, 495, 496, 495, 495, 495, 496, 496, 496, 495, 495, 496, 496, 495, 496, 495, 495, 496, 496, 495, 495, 495, 496, 495, 495, 496, 495, 495, 496, 495, 496, 496, 495, 496, 496, 495, 496, 495, 495, 496, 496, 496, 496, 495, 496, 496, 496, 496, 496, 496, 496, 496, 496, 496, 496, 496, 496, 495, 496, 496, 495, 496, 496, 495, 495, 496, 496, 496, 496, 496, 496, 496, 495, 495, 496, 495, 496, 496, 496, 496, 495, 496, 496, 496, 495, 496, 496, 496, 496, 496, 495, 496, 496, 496, 495, 496, 496, 496, 495, 495, 496, 495, 495, 496, 496, 496, 495, 496, 496, 496, 496, 496, 496, 496, 496, 495, 496, 496, 495, 496, 496, 496, 496, 496, 496, 496, 496, 495, 495, 496, 496, 495, 495, 496, 496, 496, 496, 496, 496, 496, 496, 496, 496, 496, 496, 496, 496, 496, 495, 496, 496, 496, 495, 496, 495, 496, 496, 496, 496, 496, 496, 496, 496, 496, 496, 496, 495, 496, 495, 496, 496, 495, 496, 496, 496, 496, 496, 496, 496, 496, 496, 496, 496, 496, 496, 496, 495, 496, 496, 496, 496, 496, 496, 496, 496, 496, 496, 496, 496, 495, 496, 496, 496, 496, 496, 496, 496, 496, 495, 496, 496, 495, 496, 495, 495, 496, 496, 496, 495, 496, 496, 496, 496, 496, 495, 495, 496, 496, 496, 496, 496, 495, 496, 496, 495, 496, 496, 496, 496, 496, 496, 496, 496, 496, 496, 496, 496, 495, 495, 496]"
right,"[495, 496, 496, 496, 496, 496, 496, 495, 496, 495, 495, 496, 496, 496, 495, 496, 496, 496, 495, 496, 495, 495, 495, 495, 495, 496, 495, 495, 496, 495, 496, 496, 496, 495, 495, 495, 496, 496, 495, 495, 496, 496, 495, 496, 495, 496, 496, 495, 496, 495, 496, 496, 495, 495, 496, 496, 496, 496, 495, 495, 496, 496, 496, 496, 495, 495, 496, 495, 496, 495, 495, 495, 496, 495, 496, 496, 495, 495, 496, 496, 496, 495, 495, 496, 495, 496, 495, 496, 496, 495, 495, 496, 496, 495, 495, 496, 496, 496, 496, 496, 495, 496, 495, 496, 496, 496, 496, 495, 496, 495, 496, 496, 495, 496, 496, 496, 496, 496, 496, 496, 496, 496, 496, 496, 496, 494, 496, 496, 496, 496, 495, 495, 495, 495, 495, 495, 495, 496, 496, 495, 496, 496, 496, 496, 492, 495, 497, 496, 496, 495, 488, 497, 497, 496, 496, 496, 496, 496, 491, 483, 494, 499, 495, 492, 477, 498, 510, 500, 501, 490, 515, 479, 510, 484, 488, 504, 460, 534, 482, 511, 493, 512, 491, 491, 497, 491, 509, 494, 494, 511, 495, 496, 477, 513, 496, 484, 489, 503, 489, 505, 497, 496, 481, 501, 496, 495, 491, 502, 500, 496, 502, 513, 501, 492, 500, 494, 523, 520, 499, 494, 504, 496, 498, 498, 509, 497, 507, 494, 501, 520, 507, 499, 498, 496, 497, 499, 495, 496, 500, 492, 495, 510, 494, 496, 498, 504, 491, 496, 497, 500, 500, 502, 492, 509, 498, 491, 503, 496, 495, 513, 502, 495, 500, 495, 499, 505, 494, 496, 495, 498, 487, 493, 496, 508, 496, 501, 496, 499, 497, 495, 498, 495, 497, 497, 497, 496, 483, 500, 496, 499, 496, 499, 495, 499, 493, 493, 493, 486, 493, 499, 498, 495, 497, 493, 499, 489, 498, 497, 496, 493, 502, 496, 497, 496, 498, 499, 494, 496, 495, 495, 501, 494, 496, 498, 493, 498, 489, 496, 505, 498, 500, 494, 493, 496, 498, 496, 496, 495, 495, 493, 499, 493, 503, 495, 495, 499, 493, 497, 495, 486, 499, 498, 495, 495, 496, 491, 496, 495, 495, 501, 496, 490, 493, 499, 497, 495, 498, 498, 497, 499, 495, 497, 496, 493, 497, 496, 490, 501, 496, 493, 500, 499, 496, 496, 491, 501, 496, 495, 491, 498, 495, 490, 494, 498, 502, 495, 496, 496, 496, 491, 493, 493, 492, 503, 492, 497, 497, 496, 491, 492, 499, 495, 495, 496, 493, 496, 497, 492, 496, 494, 497, 497, 495, 496, 494, 494, 495, 496, 499, 496, 498, 497, 495, 496, 494, 492, 495, 496, 494, 499, 496, 485, 497, 496, 500, 494, 496, 494, 495, 498, 496, 496, 495, 492, 502, 489, 498, 499, 493, 501, 509, 493, 503, 494, 492, 493, 492, 496, 495, 495, 492, 482, 501, 504, 497, 494, 494, 495, 497, 491, 500, 498, 497, 496, 495, 495, 500, 493, 496, 496, 492, 495, 498, 496, 485, 499, 494, 495, 489, 498, 499, 496, 495, 497, 495, 497, 497, 494, 496, 496, 495, 496, 491, 497, 497, 491, 499, 499, 496, 499, 495, 500, 494, 496, 496, 495, 496, 496, 497, 494, 498, 494, 494, 499, 496, 497, 504, 495, 495, 493, 495, 494, 494, 495, 497, 496, 496, 493, 496, 499, 502, 494, 495, 492, 495, 498, 493, 494, 496, 497, 495, 498, 490, 498, 495, 495, 497, 493, 492, 494, 495, 490, 495, 494, 501, 495, 500]"
rest,"[498, 496, 499, 496, 495, 493, 495, 495, 495, 495, 496, 492, 495, 496, 496, 493, 496, 494, 501, 492, 496, 491, 498, 496, 493, 497, 492, 496, 496, 495, 496, 496, 493, 496, 497, 495, 495, 501, 495, 497, 495, 496, 497, 495, 494, 497, 496, 495, 496, 489, 495, 496, 494, 496, 495, 498, 499, 492, 499, 496, 499, 493, 496, 494, 496, 499, 494, 497, 491, 496, 499, 497, 495, 495, 495, 497, 493, 497, 496, 495, 493, 496, 497, 494, 496, 500, 495, 492, 496, 495, 493, 496, 493, 493, 493, 492, 499, 499, 493, 500, 494, 489, 496, 496, 495, 495, 495, 495, 496, 489, 499, 495, 494, 497, 493, 496, 496, 496, 496, 496, 495, 496, 495, 495, 497, 495, 495, 491, 496, 496, 496, 493, 495, 497, 495, 496, 496, 496, 496, 494, 496, 496, 496, 495, 495, 496, 496, 495, 496, 496, 495, 495, 496, 496, 496, 495, 495, 495, 496, 495, 495, 494, 495, 496, 495, 495, 495, 495, 494, 495, 495, 495, 495, 495, 495, 494, 495, 495, 495, 494, 495, 495, 494, 495, 495, 494, 494, 495, 495, 495, 495, 495, 495, 495, 495, 495, 496, 495, 495, 495, 495, 495, 496, 495, 496, 495, 495, 495, 495, 496, 495, 495, 495, 496, 495, 495, 496, 495, 496, 495, 496, 496, 496, 495, 496, 495, 496, 495, 495, 496, 496, 495, 496, 495, 495, 496, 496, 496, 495, 495, 495, 496, 495, 496, 496, 495, 496, 495, 495, 496, 495, 496, 495, 496, 496, 496, 496, 495, 495, 495, 496, 495, 495, 495, 496, 495, 496, 496, 496, 495, 495, 496, 496, 496, 496, 496, 496, 496, 496, 496, 496, 496, 495, 496, 495, 496, 496, 496, 496, 496, 496, 495, 496, 496, 496, 496, 496, 496, 496, 496, 496, 496, 496, 496, 495, 496, 495, 496, 496, 496, 496, 496, 496, 496, 496, 496, 496, 495, 496, 496, 495, 496, 496, 496, 496, 496, 496, 496, 496, 495, 495, 496, 495, 496, 496, 496, 496, 496, 496, 496, 496, 496, 496, 496, 496, 496, 496, 495, 495, 496, 496, 496, 496, 496, 495, 496, 496, 496, 496, 496, 496, 496, 496, 495, 495, 495, 496, 496, 496, 496, 496, 496, 496, 496, 495, 496, 496, 496, 496, 496, 496, 496, 496, 496, 495, 496, 496, 496, 496, 496, 496, 495, 496, 496, 496, 496, 496, 496, 496, 496, 496, 495, 495, 496, 496, 496, 496, 495, 496, 496, 496, 496, 496, 496, 496, 495, 495, 495, 495, 496, 496, 496, 496, 495, 496, 496, 496, 496, 496, 496, 496, 496, 496, 496, 496, 496, 496, 496, 496, 496, 495, 496, 496, 496, 496, 496, 496, 496, 496, 496, 496, 496, 496, 496, 496, 496, 496, 496, 496, 496, 496, 495, 496, 496, 496, 496, 496, 496, 496, 496, 496, 496, 496, 496, 496, 496, 496, 496, 496, 496, 496, 496, 496, 496, 496, 496, 496, 496, 496, 497, 496, 496, 496, 496, 497, 496, 496, 497, 496, 496, 496, 497, 496, 496, 496, 496, 497, 497, 497, 496, 496, 496, 496, 496, 496, 496, 496, 497, 496, 496, 496, 496, 496, 496, 496, 496, 497, 496, 496, 497, 496, 497, 496, 497, 496, 496, 496, 496, 496, 496, 496, 496, 496, 496, 496, 496, 497, 497, 496, 496, 496, 496, 497, 496, 497, 497, 496, 496, 496, 496, 496, 497, 496, 496, 496, 496, 496, 496, 496, 496, 496, 496, 496, 496, 496, 497, 496]"
right,"[496, 496, 496, 496, 497, 496, 496, 496, 497, 496, 496, 496, 496, 497, 496, 496, 496, 496, 497, 496, 496, 496, 496, 497, 497, 497, 496, 496, 496, 496, 497, 497, 496, 497, 496, 497, 497, 496, 496, 497, 496, 496, 496, 496, 497, 496, 496, 497, 497, 496, 496, 497, 496, 496, 496, 496, 497, 496, 496, 496, 497, 496, 497, 496, 497, 497, 496, 496, 496, 497, 496, 496, 496, 496, 496, 496, 496, 497, 496, 496, 496, 496, 496, 496, 496, 496, 496, 496, 497, 496, 497, 496, 496, 497, 496, 497, 497, 497, 496, 497, 496, 496, 496, 496, 496, 497, 497, 496, 496, 497, 497, 497, 496, 496, 497, 496, 496, 496, 496, 496, 497, 496, 496, 496, 497, 496, 496, 496, 496, 496, 496, 496, 497, 496, 497, 496, 497, 496, 496, 496, 496, 496, 496, 496, 497, 497, 496, 496, 497, 496, 497, 496, 496, 496, 496, 496, 496, 496, 496, 496, 496, 496, 496, 496, 497, 498, 500, 495, 496, 496, 496, 492, 501, 500, 497, 497, 496, 490, 491, 504, 501, 480, 492, 509, 493, 496, 479, 518, 503, 489, 497, 490, 501, 498, 500, 488, 489, 499, 502, 498, 498, 480, 512, 499, 496, 497, 496, 496, 495, 498, 497, 495, 497, 492, 490, 500, 495, 498, 504, 500, 495, 479, 505, 501, 500, 499, 488, 494, 493, 499, 494, 497, 498, 497, 518, 501, 501, 496, 514, 459, 496, 496, 498, 495, 499, 496, 497, 496, 496, 498, 495, 496, 499, 488, 507, 483, 496, 513, 496, 498, 496, 493, 484, 503, 503, 496, 494, 500, 497, 496, 495, 495, 511, 488, 489, 497, 493, 494, 481, 494, 498, 499, 495, 496, 493, 496, 499, 515, 508, 497, 495, 504, 495, 480, 487, 504, 502, 496, 495, 499, 495, 500, 493, 489, 497, 508, 490, 505, 495, 496, 505, 501, 496, 494, 498, 495, 495, 496, 497, 493, 493, 521, 494, 503, 498, 487, 493, 482, 499, 491, 499, 493, 496, 494, 502, 494, 500, 493, 496, 495, 493, 499, 503, 490, 496, 495, 495, 491, 500, 492, 500, 492, 493, 496, 497, 494, 496, 493, 497, 494, 493, 493, 498, 485, 496, 504, 497, 496, 496, 497, 493, 494, 495, 496, 492, 490, 490, 495, 490, 498, 497, 499, 491, 499, 495, 492, 495, 498, 497, 496, 495, 505, 483, 506, 496, 492, 491, 496, 496, 490, 494, 500, 495, 495, 491, 495, 493, 504, 496, 495, 497, 489, 496, 496, 494, 493, 496, 496, 496, 500, 496, 493, 495, 489, 497, 500, 497, 495, 492, 491, 500, 495, 497, 495, 496, 495, 496, 495, 491, 503, 496, 497, 496, 494, 496, 497, 495, 498, 492, 503, 485, 498, 496, 494, 496, 495, 493, 496, 496, 491, 498, 498, 496, 495, 499, 493, 496, 496, 497, 494, 493, 494, 496, 496, 495, 496, 491, 496, 497, 495, 491, 495, 494, 493, 495, 497, 498, 496, 491, 495, 499, 494, 496, 495, 491, 498, 492, 496, 495, 496, 492, 496, 495, 496, 495, 493, 497, 495, 496, 495, 496, 495, 494, 494, 492, 495, 495, 496, 495, 500, 501, 498, 494, 495, 494, 495, 499, 494, 499, 493, 498, 496, 501, 496, 494, 496, 495, 495, 498, 495, 495, 495, 496, 490, 497, 497, 494, 495, 497, 495, 494, 495, 495, 493, 498, 495, 495, 494, 495, 492, 492, 498, 495, 498, 491, 494, 497, 493, 496, 496, 495, 501, 493, 495, 498, 496]"
rest,"[495, 493, 499, 496, 488, 496, 496, 493, 495, 498, 496, 494, 495, 496, 496, 496, 495, 496, 498, 493, 497, 497, 496, 496, 495, 493, 495, 496, 496, 495, 492, 494, 496, 498, 498, 495, 494, 495, 497, 496, 494, 496, 498, 496, 496, 492, 496, 497, 493, 496, 497, 493, 495, 496, 493, 496, 499, 493, 494, 493, 495, 493, 495, 496, 495, 495, 488, 502, 494, 494, 496, 499, 496, 498, 495, 496, 495, 496, 498, 496, 496, 495, 495, 498, 492, 497, 496, 497, 493, 500, 495, 498, 497, 493, 498, 494, 496, 496, 495, 490, 496, 495, 497, 496, 496, 496, 496, 495, 496, 496, 495, 496, 496, 494, 488, 500, 499, 496, 496, 496, 496, 496, 495, 496, 496, 496, 496, 496, 495, 496, 496, 496, 496, 496, 496, 496, 496, 496, 496, 495, 496, 495, 496, 496, 495, 495, 495, 495, 495, 495, 495, 495, 495, 495, 495, 495, 495, 494, 495, 494, 494, 495, 495, 495, 495, 495, 495, 495, 495, 495, 495, 496, 495, 495, 496, 495, 495, 496, 495, 495, 495, 496, 495, 495, 496, 496, 495, 496, 496, 496, 495, 495, 496, 496, 496, 495, 496, 496, 496, 496, 496, 496, 495, 496, 496, 496, 496, 496, 496, 496, 496, 496, 496, 496, 496, 496, 496, 496, 496, 496, 495, 496, 496, 496, 496, 496, 496, 496, 496, 496, 496, 496, 496, 496, 496, 496, 496, 496, 496, 496, 496, 496, 496, 496, 496, 496, 496, 496, 496, 496, 496, 496, 496, 496, 496, 496, 496, 496, 496, 496, 496, 496, 496, 496, 496, 496, 496, 496, 496, 496, 496, 496, 496, 496, 496, 496, 496, 496, 496, 496, 496, 496, 496, 496, 496, 496, 496, 496, 496, 496, 496, 496, 496, 496, 496, 496, 496, 496, 496, 496, 496, 496, 496, 496, 496, 496, 496, 496, 496, 496, 496, 496, 496, 496, 496, 496, 496, 496, 496, 496, 496, 496, 496, 496, 496, 496, 496, 496, 496, 496, 496, 496, 496, 496, 496, 496, 496, 496, 496, 496, 496, 496, 496, 496, 496, 496, 496, 496, 496, 496, 496, 496, 496, 496, 496, 496, 496, 496, 496, 496, 496, 496, 496, 495, 496, 496, 496, 496, 496, 496, 496, 496, 496, 496, 496, 496, 496, 496, 496, 496, 496, 496, 496, 496, 496, 496, 496, 496, 496, 496, 496, 496, 496, 496, 496, 496, 496, 496, 496, 496, 496, 496, 496, 496, 496, 496, 496, 496, 496, 496, 496, 496, 496, 496, 496, 495, 496, 496, 496, 496, 496, 496, 496, 496, 496, 496, 496, 496, 496, 496, 496, 496, 496, 496, 496, 496, 496, 496, 496, 496, 496, 496, 496, 496, 496, 496, 496, 496, 496, 496, 495, 496, 496, 496, 496, 496, 496, 498, 496, 496, 496, 496, 496, 496, 496, 496, 496, 496, 496, 496, 496, 496, 497, 496, 496, 496, 496, 496, 496, 496, 496, 496, 496, 496, 496, 496, 496, 496, 496, 496, 496, 496, 496, 496, 496, 496, 496, 496, 495, 496, 496, 496, 496, 496, 496, 495, 496, 496, 496, 496, 496, 496, 496, 496, 496, 496, 496, 496, 496, 496, 496, 496, 496, 496, 496, 496, 496, 496, 496, 496, 496, 496, 496, 496, 496, 496, 496, 496, 496, 496, 496, 496, 496, 496, 496, 496, 496, 496, 496, 496, 496, 496, 496, 496, 496, 496, 496, 496, 496, 496, 496, 496, 496, 496, 496, 496, 496, 496, 496, 496, 496, 496, 496, 496, 496, 496]"
right,"[496, 496, 496, 496, 496, 496, 496, 496, 496, 496, 496, 496, 496, 496, 496, 496, 496, 496, 496, 496, 496, 496, 496, 496, 496, 496, 496, 496, 496, 496, 496, 496, 496, 496, 496, 496, 496, 496, 496, 496, 496, 496, 496, 496, 496, 496, 496, 496, 496, 496, 496, 496, 496, 496, 496, 496, 496, 496, 496, 496, 496, 496, 496, 496, 496, 496, 496, 496, 496, 496, 496, 496, 496, 496, 496, 496, 496, 496, 496, 496, 496, 496, 496, 496, 496, 496, 496, 496, 496, 496, 496, 496, 496, 496, 496, 496, 496, 496, 496, 496, 496, 496, 496, 496, 496, 496, 496, 496, 496, 496, 496, 496, 496, 496, 496, 496, 496, 496, 496, 496, 496, 496, 496, 496, 496, 496, 496, 496, 496, 496, 496, 496, 496, 496, 496, 496, 496, 496, 496, 496, 496, 496, 496, 496, 496, 496, 496, 496, 496, 496, 496, 496, 494, 498, 496, 496, 496, 496, 497, 491, 495, 498, 496, 496, 490, 502, 491, 500, 496, 500, 493, 499, 496, 496, 496, 496, 496, 490, 491, 488, 509, 498, 498, 486, 498, 499, 496, 493, 506, 493, 475, 516, 491, 521, 484, 499, 492, 500, 490, 501, 510, 508, 510, 493, 492, 493, 477, 519, 500, 481, 507, 486, 498, 502, 508, 492, 496, 490, 496, 498, 510, 497, 500, 502, 490, 500, 494, 502, 496, 492, 495, 506, 489, 503, 495, 497, 500, 494, 502, 499, 496, 498, 495, 508, 500, 496, 495, 508, 490, 496, 502, 495, 493, 498, 484, 504, 494, 495, 490, 492, 498, 497, 495, 496, 497, 483, 510, 498, 497, 495, 494, 495, 497, 499, 496, 500, 481, 497, 501, 498, 499, 498, 496, 497, 494, 508, 496, 494, 504, 500, 496, 496, 496, 496, 493, 497, 498, 499, 491, 501, 495, 487, 500, 494, 499, 496, 500, 492, 496, 487, 498, 495, 498, 496, 495, 492, 499, 495, 489, 498, 489, 499, 496, 496, 499, 496, 497, 491, 495, 498, 495, 495, 493, 490, 496, 497, 496, 496, 494, 494, 496, 494, 493, 495, 497, 495, 497, 495, 496, 494, 497, 491, 496, 491, 500, 496, 496, 495, 496, 498, 502, 495, 483, 497, 497, 495, 497, 496, 496, 495, 496, 496, 496, 495, 493, 495, 503, 499, 494, 493, 498, 497, 494, 498, 492, 499, 496, 496, 492, 500, 492, 495, 496, 495, 494, 490, 502, 502, 491, 501, 494, 496, 497, 496, 494, 496, 491, 494, 496, 493, 498, 492, 500, 495, 493, 495, 492, 497, 498, 498, 495, 493, 495, 504, 494, 497, 495, 496, 493, 496, 496, 496, 497, 495, 496, 497, 498, 499, 495, 496, 496, 495, 501, 495, 496, 498, 499, 494, 495, 496, 496, 491, 498, 495, 497, 496, 496, 498, 494, 496, 494, 492, 494, 501, 492, 496, 495, 496, 496, 497, 496, 495, 496, 496, 496, 496, 498, 493, 496, 494, 494, 497, 498, 495, 495, 494, 496, 494, 495, 497, 492, 499, 494, 496, 496, 494, 495, 498, 495, 483, 499, 494, 497, 496, 496, 494, 495, 495, 493, 495, 503, 498, 495, 496, 497, 490, 497, 497, 490, 495, 496, 493, 496, 495, 496, 495, 495, 498, 494, 495, 496, 493, 494, 498, 498, 495, 495, 496, 493, 494, 495, 499, 497, 497, 495, 497, 495, 496, 494, 496, 496, 496, 495, 495, 496, 493, 496, 499, 499, 496, 495, 496, 495, 497, 494, 496, 496, 495, 490, 496, 484, 498, 496, 501, 495, 495, 496]"
rest,"[499, 496, 495, 495, 495, 498, 495, 493, 494, 497, 496, 490, 496, 495, 496, 495, 496, 495, 496, 500, 499, 495, 495, 496, 495, 496, 494, 496, 496, 489, 501, 496, 496, 496, 494, 496, 495, 496, 498, 496, 498, 495, 497, 499, 496, 494, 494, 496, 495, 497, 498, 495, 496, 495, 496, 495, 495, 495, 496, 496, 495, 497, 495, 496, 493, 494, 495, 497, 495, 496, 499, 498, 494, 496, 496, 493, 496, 496, 494, 496, 495, 492, 498, 496, 496, 496, 496, 496, 496, 497, 495, 496, 496, 496, 496, 496, 496, 496, 494, 497, 495, 496, 497, 496, 496, 493, 499, 497, 496, 496, 497, 497, 496, 499, 495, 496, 496, 497, 496, 497, 495, 496, 493, 498, 496, 496, 496, 496, 496, 495, 496, 496, 496, 496, 496, 496, 495, 496, 496, 496, 496, 495, 495, 496, 496, 496, 495, 495, 496, 496, 496, 496, 495, 495, 496, 496, 495, 496, 496, 496, 496, 495, 496, 495, 495, 496, 495, 495, 495, 495, 495, 495, 495, 495, 494, 495, 495, 495, 495, 495, 495, 495, 496, 495, 495, 496, 495, 495, 496, 495, 495, 496, 496, 496, 496, 496, 496, 496, 496, 496, 496, 496, 496, 496, 496, 496, 495, 496, 496, 496, 496, 496, 496, 496, 496, 496, 496, 496, 496, 496, 495, 495, 496, 496, 496, 496, 496, 496, 496, 496, 496, 496, 496, 496, 496, 496, 496, 496, 496, 496, 496, 496, 496, 496, 496, 496, 496, 496, 496, 496, 496, 496, 496, 496, 496, 496, 497, 496, 496, 495, 495, 496, 496, 496, 496, 496, 496, 496, 495, 496, 496, 496, 496, 495, 497, 495, 496, 496, 496, 497, 496, 496, 496, 495, 496, 496, 496, 496, 495, 496, 496, 496, 496, 496, 496, 496, 496, 496, 496, 496, 496, 496, 496, 496, 496, 496, 496, 496, 496, 496, 496, 497, 495, 495, 496, 496, 496, 496, 496, 496, 496, 496, 496, 496, 496, 496, 496, 496, 496, 496, 496, 496, 496, 496, 496, 496, 496, 496, 496, 496, 496, 495, 497, 495, 496, 496, 496, 496, 496, 497, 496, 495, 496, 496, 496, 496, 496, 496, 496, 496, 495, 496, 496, 496, 496, 496, 496, 496, 496, 496, 496, 495, 496, 496, 496, 496, 495, 496, 496, 495, 496, 496, 496, 496, 496, 496, 495, 496, 496, 496, 496, 496, 496, 496, 496, 496, 496, 496, 495, 496, 496, 496, 496, 496, 496, 496, 496, 496, 496, 496, 496, 496, 495, 496, 496, 496, 496, 496, 496, 496, 495, 496, 495, 496, 495, 496, 495, 496, 495, 496, 496, 496, 496, 496, 496, 496, 496, 495, 496, 496, 496, 496, 496, 496, 496, 496, 496, 496, 496, 496, 496, 496, 496, 496, 496, 496, 496, 495, 497, 497, 496, 496, 496, 496, 496, 496, 496, 496, 496, 496, 496, 496, 496, 496, 496, 496, 495, 496, 496, 496, 496, 496, 497, 495, 496, 496, 496, 496, 495, 496, 496, 495, 496, 496, 496, 497, 496, 496, 496, 496, 495, 496, 496, 496, 496, 496, 496, 496, 496, 496, 497, 496, 496, 496, 496, 496, 496, 497, 496, 496, 496, 496, 496, 496, 496, 496, 496, 496, 496, 497, 496, 496, 496, 496, 496, 496, 496, 496, 496, 496, 496, 496, 496, 496, 496, 495, 496, 496, 496, 496, 496, 496, 496, 497, 496, 496, 497, 495, 496, 495, 496, 496, 496, 496, 495, 496, 496, 496, 496, 496, 496, 496, 497, 496, 496, 496, 496]"
right,"[496, 496, 496, 496, 496, 496, 496, 496, 496, 496, 496, 496, 496, 495, 496, 496, 498, 496, 495, 496, 496, 496, 496, 496, 496, 496, 496, 496, 496, 496, 496, 495, 496, 496, 496, 496, 496, 496, 496, 496, 497, 496, 496, 496, 496, 496, 496, 496, 496, 496, 496, 496, 496, 495, 496, 496, 496, 496, 496, 496, 496, 496, 496, 496, 496, 496, 496, 496, 496, 496, 496, 497, 496, 496, 496, 496, 497, 496, 496, 496, 496, 496, 496, 496, 496, 496, 496, 496, 496, 496, 496, 496, 496, 496, 496, 496, 496, 496, 496, 496, 497, 496, 495, 496, 496, 496, 496, 496, 496, 496, 496, 497, 495, 496, 496, 496, 496, 496, 496, 496, 496, 496, 496, 497, 496, 496, 496, 496, 496, 496, 496, 496, 496, 496, 496, 496, 497, 496, 496, 496, 489, 496, 501, 496, 496, 498, 494, 494, 498, 494, 497, 496, 495, 486, 490, 487, 509, 493, 495, 504, 496, 489, 487, 498, 498, 496, 504, 483, 482, 494, 500, 499, 507, 468, 499, 505, 492, 505, 500, 492, 463, 512, 515, 503, 504, 515, 494, 518, 472, 511, 502, 511, 498, 502, 492, 511, 500, 503, 479, 500, 511, 502, 491, 513, 509, 484, 489, 498, 505, 507, 498, 461, 496, 504, 488, 462, 505, 484, 495, 494, 492, 503, 502, 498, 492, 508, 487, 499, 498, 504, 507, 500, 500, 493, 501, 492, 505, 496, 511, 499, 501, 496, 498, 471, 502, 488, 503, 490, 500, 495, 498, 494, 507, 491, 511, 506, 492, 504, 499, 500, 488, 495, 497, 495, 480, 496, 496, 495, 496, 497, 492, 497, 496, 498, 490, 503, 491, 502, 500, 504, 497, 498, 493, 502, 496, 501, 492, 495, 493, 501, 496, 497, 492, 499, 491, 502, 495, 489, 496, 491, 494, 496, 494, 492, 496, 496, 498, 495, 497, 498, 499, 490, 495, 486, 501, 498, 495, 490, 501, 500, 496, 494, 496, 497, 494, 498, 497, 499, 490, 495, 493, 494, 493, 492, 495, 500, 499, 497, 493, 496, 498, 494, 493, 495, 498, 490, 499, 494, 495, 495, 496, 493, 497, 495, 492, 494, 495, 491, 495, 498, 496, 502, 497, 494, 494, 493, 494, 499, 495, 492, 494, 495, 496, 495, 495, 502, 500, 495, 497, 497, 491, 502, 494, 496, 495, 495, 492, 499, 496, 496, 490, 495, 501, 499, 495, 498, 500, 495, 496, 496, 491, 505, 492, 498, 497, 495, 495, 497, 494, 496, 494, 496, 495, 496, 494, 496, 495, 497, 498, 499, 495, 496, 496, 494, 492, 496, 498, 496, 494, 492, 499, 496, 497, 498, 495, 495, 498, 494, 496, 492, 495, 496, 495, 501, 496, 493, 498, 495, 494, 499, 496, 497, 496, 496, 495, 496, 493, 496, 495, 496, 495, 494, 496, 497, 497, 499, 497, 493, 497, 487, 495, 497, 495, 495, 490, 495, 499, 498, 495, 496, 490, 496, 495, 499, 495, 491, 500, 493, 493, 494, 498, 496, 494, 496, 496, 493, 498, 495, 494, 496, 495, 495, 496, 500, 494, 498, 498, 495, 496, 494, 496, 495, 496, 494, 498, 500, 496, 496, 497, 488, 500, 495, 496, 499, 496, 496, 495, 495, 494, 498, 494, 495, 494, 495, 494, 491, 488, 497, 496, 498, 496, 496, 490, 494, 496, 496, 496, 496, 496, 495, 495, 496, 495, 495, 495, 498, 496, 496, 495, 496, 496, 494, 499, 495, 495, 496, 496, 496, 496, 495, 494, 497, 496, 497, 496, 497, 495]"
rest,"[496, 495, 495, 492, 492, 497, 494, 500, 496, 496, 496, 495, 496, 497, 495, 495, 493, 495, 494, 494, 494, 496, 496, 495, 497, 496, 496, 496, 495, 496, 496, 494, 495, 499, 496, 493, 496, 497, 495, 496, 496, 494, 498, 496, 496, 496, 492, 497, 497, 494, 499, 496, 496, 491, 488, 496, 492, 495, 491, 497, 496, 496, 496, 495, 493, 496, 495, 497, 495, 496, 488, 493, 496, 493, 504, 498, 496, 494, 498, 495, 496, 496, 496, 490, 500, 496, 496, 493, 498, 501, 495, 497, 494, 496, 496, 497, 495, 496, 495, 496, 495, 496, 499, 495, 495, 496, 496, 496, 489, 497, 498, 496, 496, 496, 496, 496, 496, 496, 496, 496, 496, 495, 496, 496, 496, 496, 495, 496, 496, 496, 496, 495, 496, 496, 496, 495, 495, 496, 495, 495, 495, 495, 495, 495, 495, 494, 495, 495, 495, 495, 495, 495, 495, 495, 495, 495, 495, 496, 495, 495, 495, 496, 496, 495, 496, 495, 495, 496, 495, 495, 496, 496, 495, 495, 495, 496, 496, 496, 496, 496, 496, 495, 496, 496, 495, 496, 496, 496, 496, 496, 496, 495, 496, 496, 496, 496, 496, 495, 495, 496, 496, 495, 496, 496, 496, 496, 496, 496, 496, 496, 496, 496, 496, 496, 496, 496, 496, 496, 496, 496, 496, 496, 496, 496, 496, 496, 495, 496, 496, 496, 496, 495, 496, 496, 496, 496, 496, 496, 496, 496, 496, 496, 496, 496, 496, 495, 496, 496, 496, 496, 496, 495, 496, 496, 495, 496, 496, 496, 495, 496, 495, 496, 496, 496, 496, 496, 496, 496, 496, 496, 496, 496, 496, 495, 496, 496, 496, 496, 496, 496, 496, 496, 496, 496, 496, 496, 495, 497, 496, 496, 496, 496, 496, 496, 496, 496, 496, 496, 496, 496, 496, 496, 496, 496, 496, 496, 496, 496, 496, 496, 496, 496, 496, 496, 496, 495, 496, 496, 496, 496, 496, 496, 496, 496, 495, 496, 496, 496, 496, 496, 496, 496, 496, 496, 496, 496, 496, 496, 496, 496, 496, 496, 496, 496, 496, 496, 496, 496, 496, 496, 496, 496, 496, 496, 496, 496, 496, 496, 496, 496, 496, 496, 496, 496, 496, 496, 496, 496, 496, 496, 496, 496, 496, 496, 496, 496, 496, 496, 496, 497, 497, 496, 496, 496, 496, 495, 496, 496, 496, 496, 496, 496, 496, 496, 496, 496, 495, 496, 496, 496, 496, 496, 496, 496, 496, 496, 496, 496, 496, 497, 496, 496, 496, 496, 496, 496, 496, 496, 496, 496, 496, 496, 496, 496, 496, 496, 496, 496, 497, 496, 496, 496, 496, 496, 497, 497, 496, 496, 496, 496, 496, 496, 496, 496, 496, 496, 496, 496, 497, 496, 495, 496, 496, 496, 496, 496, 496, 496, 496, 495, 496, 496, 496, 496, 496, 498, 497, 495, 496, 496, 496, 496, 496, 496, 496, 496, 496, 495, 496, 496, 495, 496, 496, 496, 496, 496, 496, 496, 496, 496, 496, 496, 496, 495, 496, 498, 496, 496, 496, 496, 496, 496, 496, 496, 496, 496, 496, 495, 496, 496, 495, 497, 495, 495, 496, 496, 496, 496, 496, 496, 496, 496, 497, 495, 496, 496, 496, 496, 496, 495, 496, 497, 495, 496, 496, 496, 496, 496, 496, 496, 496, 496, 496, 496, 496, 496, 496, 497, 496, 495, 495, 495, 496, 496, 496, 496, 496, 496, 496, 496, 496, 496, 495, 496, 495, 496, 496, 496, 495, 496, 495, 495, 495, 496, 496, 495]"
right,"[496, 496, 497, 495, 495, 495, 496, 496, 496, 495, 496, 496, 495, 496, 496, 496, 496, 495, 495, 495, 495, 495, 496, 495, 495, 495, 495, 495, 495, 495, 496, 496, 496, 496, 496, 494, 495, 496, 495, 496, 496, 495, 496, 495, 495, 495, 495, 496, 496, 496, 496, 496, 496, 496, 496, 496, 496, 496, 495, 495, 495, 496, 495, 495, 496, 496, 496, 496, 496, 496, 495, 496, 496, 496, 496, 495, 496, 495, 496, 495, 495, 496, 495, 496, 496, 495, 495, 496, 495, 496, 495, 496, 495, 495, 495, 495, 496, 496, 496, 496, 495, 496, 495, 495, 495, 496, 496, 496, 495, 495, 496, 496, 496, 496, 496, 496, 495, 496, 496, 495, 495, 493, 494, 499, 496, 496, 485, 495, 503, 496, 496, 496, 489, 492, 502, 497, 497, 496, 496, 496, 497, 478, 496, 505, 483, 501, 512, 496, 497, 496, 496, 496, 494, 491, 481, 503, 489, 521, 480, 469, 525, 500, 488, 498, 461, 520, 526, 492, 476, 493, 502, 530, 484, 497, 476, 499, 491, 496, 498, 495, 483, 497, 500, 485, 504, 499, 499, 498, 468, 512, 494, 499, 499, 490, 511, 487, 504, 502, 484, 499, 504, 499, 497, 499, 500, 485, 494, 498, 501, 494, 474, 486, 506, 498, 498, 493, 499, 492, 495, 502, 487, 502, 492, 498, 497, 515, 495, 513, 497, 511, 484, 496, 500, 497, 502, 479, 496, 498, 489, 491, 497, 504, 495, 496, 497, 506, 495, 495, 499, 482, 495, 494, 503, 498, 489, 513, 503, 498, 493, 498, 497, 495, 499, 497, 500, 493, 504, 493, 496, 495, 495, 500, 496, 497, 494, 498, 481, 494, 488, 491, 499, 496, 494, 498, 496, 490, 494, 484, 483, 502, 494, 486, 501, 495, 496, 496, 499, 503, 495, 501, 500, 491, 501, 500, 495, 495, 490, 496, 491, 499, 497, 498, 494, 493, 497, 495, 494, 495, 499, 496, 496, 499, 504, 497, 496, 495, 495, 493, 496, 494, 501, 496, 496, 500, 494, 495, 495, 496, 496, 496, 493, 495, 497, 497, 491, 496, 496, 488, 494, 496, 492, 498, 491, 495, 500, 494, 495, 494, 491, 491, 497, 495, 499, 495, 500, 494, 500, 497, 495, 496, 495, 496, 494, 496, 493, 496, 495, 489, 509, 489, 497, 495, 498, 494, 496, 497, 496, 495, 493, 495, 496, 492, 495, 493, 493, 495, 493, 496, 494, 490, 495, 496, 497, 496, 493, 499, 484, 497, 495, 499, 498, 496, 496, 496, 495, 495, 495, 492, 495, 495, 484, 494, 498, 496, 495, 499, 491, 497, 495, 494, 496, 494, 494, 493, 490, 496, 495, 492, 496, 500, 490, 496, 496, 495, 493, 493, 498, 496, 495, 497, 495, 496, 493, 495, 498, 493, 494, 498, 495, 494, 495, 501, 493, 495, 498, 494, 495, 495, 492, 495, 495, 489, 496, 498, 496, 495, 495, 491, 496, 493, 497, 496, 497, 497, 496, 495, 498, 490, 493, 496, 495, 492, 495, 497, 497, 496, 495, 496, 495, 496, 501, 485, 489, 497, 496, 498, 495, 498, 495, 495, 497, 494, 495, 496, 496, 497, 495, 496, 496, 494, 498, 497, 496, 494, 498, 490, 498, 496, 496, 495, 495, 494, 493, 497, 496, 494, 495, 494, 495, 496, 496, 494, 495, 494, 501, 498, 495, 495, 493, 495, 495, 496, 495, 494, 496, 497, 495, 496, 492, 502, 497, 496, 493, 497, 496, 492, 495, 495, 496, 495, 496, 495, 493, 498, 498, 495]"
rest,"[496, 495, 496, 492, 486, 498, 500, 493, 501, 498, 496, 495, 496, 496, 496, 496, 497, 496, 495, 496, 496, 494, 494, 488, 497, 499, 494, 496, 497, 498, 496, 495, 495, 495, 499, 495, 495, 494, 494, 498, 494, 500, 497, 493, 493, 495, 496, 496, 494, 503, 500, 495, 497, 495, 498, 497, 496, 496, 496, 497, 495, 495, 493, 504, 497, 495, 497, 495, 496, 496, 487, 499, 494, 498, 496, 496, 496, 495, 492, 494, 494, 498, 497, 496, 493, 496, 493, 501, 498, 496, 496, 496, 495, 496, 495, 496, 496, 493, 496, 495, 499, 497, 496, 496, 496, 496, 495, 495, 496, 496, 496, 496, 496, 496, 495, 496, 497, 496, 496, 496, 496, 496, 496, 496, 496, 496, 495, 496, 495, 495, 496, 495, 495, 496, 495, 495, 496, 496, 496, 495, 495, 496, 495, 496, 495, 495, 495, 495, 495, 495, 495, 495, 495, 496, 496, 495, 496, 495, 496, 496, 496, 496, 496, 496, 496, 496, 496, 496, 496, 496, 496, 496, 496, 496, 496, 496, 496, 496, 496, 496, 497, 496, 496, 496, 496, 496, 496, 496, 496, 496, 496, 496, 496, 496, 497, 496, 496, 496, 496, 496, 496, 496, 496, 496, 496, 496, 496, 496, 496, 496, 496, 496, 496, 496, 496, 496, 496, 496, 496, 496, 496, 496, 496, 497, 496, 496, 496, 497, 496, 496, 496, 496, 496, 497, 496, 496, 496, 496, 496, 497, 496, 496, 496, 496, 496, 496, 496, 496, 496, 497, 496, 496, 496, 497, 496, 496, 496, 496, 496, 496, 496, 496, 496, 496, 496, 496, 496, 496, 496, 496, 496, 496, 496, 496, 496, 496, 496, 496, 496, 496, 496, 496, 496, 496, 496, 496, 496, 497, 496, 496, 496, 496, 496, 496, 496, 496, 496, 496, 496, 496, 496, 496, 496, 496, 496, 496, 496, 496, 496, 496, 496, 496, 496, 496, 496, 496, 496, 496, 496, 496, 496, 496, 496, 496, 497, 497, 496, 497, 496, 496, 496, 496, 497, 496, 496, 496, 497, 497, 496, 496, 496, 496, 496, 496, 496, 497, 496, 496, 497, 497, 497, 496, 496, 497, 496, 496, 496, 496, 496, 496, 496, 496, 496, 496, 496, 496, 496, 496, 497, 497, 497, 496, 497, 496, 496, 496, 496, 496, 496, 496, 496, 496, 497, 497, 496, 497, 496, 496, 497, 496, 496, 496, 496, 497, 496, 496, 496, 497, 497, 497, 497, 496, 496, 496, 496, 497, 497, 496, 496, 496, 496, 496, 496, 497, 496, 497, 496, 496, 497, 496, 496, 497, 497, 496, 496, 497, 497, 497, 496, 496, 496, 497, 496, 496, 497, 497, 496, 496, 496, 496, 496, 497, 497, 496, 497, 497, 496, 496, 496, 497, 496, 496, 496, 497, 496, 497, 496, 496, 496, 497, 496, 496, 497, 496, 496, 496, 496, 496, 497, 496, 496, 496, 496, 496, 496, 496, 496, 496, 496, 496, 496, 496, 497, 496, 496, 497, 497, 496, 496, 497, 497, 496, 496, 497, 496, 496, 496, 496, 496, 497, 496, 496, 496, 496, 496, 496, 496, 496, 496, 496, 496, 496, 496, 496, 496, 497, 496, 496, 497, 496, 496, 496, 496, 496, 496, 496, 496, 496, 496, 496, 496, 496, 496, 496, 496, 496, 496, 496, 496, 496, 496, 496, 496, 496, 496, 496, 496, 496, 496, 496, 496, 496, 496, 496, 496, 496, 496, 496, 496, 496, 496, 496, 496, 496, 496, 496, 496, 496, 496, 496, 496, 496, 496, 496, 496, 496, 496]"
right,"[496, 496, 496, 496, 496, 496, 496, 496, 496, 496, 496, 496, 496, 496, 496, 496, 496, 496, 496, 496, 496, 496, 496, 496, 496, 496, 496, 496, 496, 496, 496, 496, 496, 496, 496, 496, 496, 495, 496, 496, 496, 496, 496, 496, 496, 496, 496, 496, 496, 496, 496, 496, 496, 496, 496, 496, 496, 496, 496, 496, 496, 496, 496, 495, 496, 496, 496, 496, 496, 496, 496, 496, 496, 495, 496, 496, 496, 496, 496, 496, 496, 496, 496, 496, 496, 496, 496, 496, 496, 496, 496, 495, 496, 496, 496, 496, 496, 495, 495, 495, 496, 496, 496, 496, 496, 496, 495, 496, 496, 496, 496, 496, 496, 496, 495, 496, 495, 496, 496, 496, 496, 496, 494, 486, 495, 479, 495, 487, 497, 497, 473, 480, 527, 491, 491, 521, 526, 488, 465, 506, 492, 476, 524, 510, 488, 488, 498, 517, 474, 515, 500, 508, 490, 506, 508, 483, 496, 491, 479, 506, 505, 501, 490, 488, 496, 494, 494, 513, 492, 501, 501, 495, 478, 504, 472, 483, 490, 497, 493, 488, 502, 479, 518, 504, 492, 493, 503, 490, 500, 500, 491, 498, 498, 490, 500, 485, 540, 497, 502, 497, 508, 496, 500, 488, 502, 497, 493, 496, 493, 518, 494, 496, 485, 498, 494, 495, 495, 500, 470, 498, 499, 468, 506, 504, 504, 488, 501, 495, 485, 498, 499, 478, 509, 488, 505, 494, 496, 492, 503, 500, 496, 485, 498, 495, 503, 505, 500, 492, 494, 486, 503, 490, 493, 501, 490, 495, 512, 496, 497, 503, 494, 500, 491, 491, 498, 484, 508, 496, 494, 480, 503, 495, 491, 495, 500, 497, 492, 504, 495, 503, 495, 495, 494, 498, 490, 501, 487, 506, 484, 499, 496, 496, 495, 497, 501, 496, 499, 493, 495, 503, 493, 499, 499, 484, 491, 497, 501, 501, 501, 491, 502, 505, 492, 490, 499, 493, 499, 486, 496, 501, 494, 500, 490, 499, 492, 505, 496, 495, 499, 497, 490, 499, 490, 499, 495, 501, 494, 488, 497, 495, 496, 500, 494, 496, 495, 495, 486, 491, 504, 495, 501, 495, 493, 490, 493, 497, 492, 496, 490, 495, 492, 495, 503, 496, 496, 493, 492, 493, 498, 498, 495, 494, 495, 495, 495, 496, 497, 495, 494, 501, 497, 495, 492, 497, 503, 496, 496, 490, 499, 495, 495, 495, 494, 497, 494, 494, 482, 497, 497, 492, 493, 491, 500, 493, 497, 494, 496, 495, 500, 501, 496, 493, 501, 494, 497, 493, 495, 499, 494, 495, 496, 496, 496, 501, 494, 498, 497, 495, 494, 496, 489, 493, 493, 497, 494, 494, 495, 500, 496, 495, 491, 493, 497, 494, 505, 498, 492, 510, 494, 496, 493, 492, 500, 499, 498, 493, 492, 503, 490, 499, 494, 499, 500, 492, 494, 495, 501, 494, 497, 493, 498, 495, 494, 496, 495, 489, 496, 492, 491, 499, 496, 496, 491, 496, 485, 495, 495, 498, 493, 494, 497, 495, 495, 497, 496, 497, 494, 492, 496, 495, 495, 495, 500, 497, 494, 494, 498, 496, 496, 496, 497, 489, 502, 497, 496, 495, 496, 495, 493, 494, 496, 495, 496, 497, 490, 500, 499, 498, 495, 493, 486, 493, 496, 499, 498, 494, 493, 498, 491, 492, 495, 486, 500, 495, 498, 493, 495, 496, 496, 495, 494, 495, 495, 496, 495, 499, 495, 496, 495, 497, 495, 497, 495, 503, 496, 499, 496, 495, 500, 495, 497, 497, 494, 495, 495, 499, 502]"
rest,"[501, 494, 490, 497, 497, 495, 496, 501, 496, 497, 494, 496, 494, 496, 491, 500, 490, 498, 497, 502, 498, 494, 489, 497, 495, 495, 495, 500, 495, 496, 496, 496, 494, 498, 496, 495, 485, 493, 504, 499, 499, 495, 499, 496, 495, 493, 496, 496, 501, 491, 497, 494, 514, 500, 497, 496, 493, 510, 496, 497, 497, 492, 498, 487, 505, 499, 497, 497, 498, 496, 490, 500, 494, 501, 495, 497, 494, 484, 512, 501, 500, 494, 496, 500, 496, 487, 505, 488, 498, 495, 493, 496, 496, 502, 494, 515, 495, 498, 497, 492, 498, 493, 496, 487, 492, 490, 498, 496, 496, 496, 495, 495, 495, 495, 496, 496, 496, 495, 495, 496, 495, 496, 496, 495, 496, 496, 495, 496, 496, 495, 496, 496, 495, 495, 495, 495, 495, 495, 495, 495, 495, 495, 495, 495, 494, 495, 494, 495, 495, 495, 495, 495, 496, 495, 495, 495, 495, 495, 496, 495, 495, 496, 496, 496, 496, 496, 496, 496, 496, 496, 496, 496, 496, 496, 496, 496, 496, 496, 496, 496, 496, 496, 495, 496, 496, 496, 496, 496, 496, 496, 496, 496, 496, 496, 496, 496, 496, 496, 496, 496, 496, 496, 496, 496, 496, 496, 496, 496, 496, 496, 496, 496, 496, 496, 496, 496, 496, 496, 496, 496, 496, 496, 496, 496, 496, 496, 496, 496, 496, 496, 496, 496, 496, 496, 496, 496, 496, 496, 496, 496, 496, 496, 496, 496, 496, 496, 496, 496, 496, 496, 496, 496, 496, 496, 496, 496, 496, 496, 496, 496, 496, 496, 496, 496, 496, 496, 497, 496, 497, 497, 497, 496, 496, 496, 496, 497, 496, 496, 496, 496, 496, 496, 496, 496, 497, 497, 497, 497, 497, 497, 497, 497, 497, 496, 496, 497, 497, 496, 497, 497, 496, 497, 497, 497, 497, 497, 496, 497, 497, 497, 497, 497, 497, 497, 496, 497, 497, 496, 497, 497, 496, 497, 497, 496, 497, 497, 497, 496, 496, 497, 497, 496, 497, 497, 497, 497, 496, 496, 497, 496, 496, 497, 497, 496, 497, 497, 497, 497, 496, 497, 497, 497, 497, 496, 496, 497, 496, 497, 496, 496, 496, 497, 496, 496, 497, 496, 497, 496, 496, 496, 497, 497, 497, 497, 496, 498, 496, 497, 497, 497, 497, 497, 496, 496, 497, 496, 497, 496, 496, 497, 496, 496, 497, 496, 496, 496, 496, 497, 497, 496, 496, 497, 497, 496, 496, 496, 497, 496, 496, 497, 497, 496, 496, 496, 497, 497, 496, 496, 496, 496, 496, 497, 496, 497, 496, 497, 496, 498, 496, 496, 496, 496, 496, 497, 496, 496, 496, 496, 497, 496, 496, 496, 496, 496, 496, 496, 497, 496, 496, 496, 497, 496, 496, 497, 496, 496, 496, 497, 496, 496, 497, 497, 497, 496, 496, 497, 496, 497, 496, 497, 497, 496, 496, 496, 496, 496, 496, 497, 497, 496, 496, 496, 496, 496, 497, 497, 497, 496, 496, 496, 497, 496, 496, 496, 496, 496, 496, 497, 496, 496, 497, 496, 497, 496, 496, 497, 496, 497, 496, 497, 496, 496, 496, 496, 496, 497, 496, 496, 496, 496, 497, 496, 496, 497, 497, 496, 496, 496, 496, 497, 497, 497, 497, 496, 497, 497, 497, 497, 497, 496, 497, 497, 497, 497, 497, 497, 496, 497, 496, 497, 497, 496, 496, 497, 496, 496, 497, 497, 496, 497, 497, 496, 497, 496, 496, 496, 496, 497, 497, 496, 497, 497, 496, 497, 497, 497]"
right,"[497, 496, 496, 497, 496, 497, 496, 497, 496, 496, 497, 496, 497, 496, 497, 497, 497, 497, 497, 497, 497, 496, 496, 497, 497, 497, 497, 496, 497, 497, 496, 497, 496, 496, 497, 497, 497, 497, 496, 497, 497, 497, 496, 497, 496, 497, 497, 496, 496, 496, 497, 497, 497, 496, 497, 497, 497, 497, 497, 497, 496, 496, 497, 496, 496, 496, 496, 497, 497, 496, 497, 497, 497, 497, 497, 497, 496, 497, 496, 497, 497, 496, 497, 497, 496, 497, 497, 497, 497, 497, 497, 497, 497, 497, 497, 496, 497, 497, 497, 497, 497, 496, 497, 497, 497, 497, 497, 496, 496, 497, 497, 496, 497, 497, 496, 496, 497, 497, 497, 497, 497, 497, 497, 497, 497, 497, 496, 497, 496, 496, 497, 497, 496, 496, 497, 497, 496, 497, 496, 497, 496, 496, 497, 497, 496, 496, 496, 497, 497, 497, 496, 497, 497, 496, 497, 496, 496, 497, 496, 496, 496, 497, 497, 496, 497, 496, 496, 496, 496, 496, 497, 496, 496, 497, 497, 495, 494, 496, 498, 496, 498, 496, 500, 494, 496, 493, 496, 496, 497, 496, 496, 496, 496, 496, 498, 495, 495, 494, 498, 497, 499, 498, 495, 488, 498, 494, 486, 503, 483, 496, 495, 489, 513, 507, 486, 485, 505, 499, 478, 494, 485, 522, 482, 499, 497, 486, 504, 496, 496, 496, 494, 498, 495, 491, 503, 500, 538, 497, 504, 494, 494, 505, 503, 484, 495, 492, 512, 497, 504, 500, 490, 493, 494, 490, 480, 510, 493, 504, 499, 503, 500, 497, 495, 482, 493, 498, 491, 485, 487, 499, 505, 497, 499, 500, 492, 498, 497, 489, 498, 494, 489, 505, 491, 499, 506, 496, 500, 500, 497, 496, 485, 501, 495, 494, 493, 495, 502, 499, 493, 495, 495, 480, 498, 481, 497, 502, 498, 498, 495, 498, 494, 495, 497, 500, 473, 491, 500, 493, 501, 493, 488, 490, 496, 489, 492, 494, 501, 501, 494, 493, 495, 495, 497, 495, 496, 500, 495, 495, 495, 502, 493, 496, 494, 498, 500, 495, 495, 499, 494, 496, 496, 493, 490, 494, 488, 508, 493, 495, 499, 492, 499, 495, 496, 498, 491, 495, 499, 491, 496, 495, 490, 497, 494, 501, 493, 502, 494, 493, 498, 494, 487, 500, 496, 489, 495, 496, 496, 494, 495, 502, 496, 495, 491, 494, 508, 500, 497, 492, 496, 496, 497, 496, 496, 495, 495, 496, 491, 498, 495, 501, 495, 495, 496, 496, 494, 481, 509, 501, 493, 501, 492, 499, 496, 496, 500, 494, 496, 495, 497, 499, 495, 495, 494, 496, 495, 489, 497, 489, 497, 494, 495, 496, 494, 498, 494, 494, 492, 494, 498, 490, 497, 492, 495, 496, 491, 496, 489, 496, 501, 496, 495, 497, 496, 492, 495, 494, 495, 496, 496, 501, 496, 495, 501, 494, 499, 495, 495, 501, 490, 498, 496, 496, 494, 494, 498, 496, 497, 495, 497, 493, 495, 496, 493, 498, 495, 490, 496, 497, 496, 489, 497, 500, 492, 497, 495, 493, 493, 498, 494, 496, 494, 498, 495, 494, 494, 496, 494, 495, 495, 491, 491, 494, 500, 495, 486, 501, 495, 497, 499, 488, 496, 497, 495, 496, 493, 489, 498, 496, 503, 494, 495, 502, 495, 495, 492, 494, 495, 495, 501, 497, 492, 489, 490, 493, 496, 496, 489, 495, 495, 500, 500, 492, 498, 494, 500, 495, 496, 488, 501, 496, 495, 494, 499, 497, 495, 493]"
rest,"[489, 500, 496, 498, 501, 496, 496, 494, 494, 499, 494, 497, 497, 496, 496, 498, 496, 496, 494, 498, 494, 494, 492, 494, 498, 494, 496, 497, 494, 495, 496, 497, 495, 498, 495, 494, 490, 496, 495, 500, 496, 493, 495, 495, 497, 495, 498, 492, 495, 495, 496, 496, 486, 497, 494, 496, 494, 493, 496, 498, 493, 496, 498, 496, 497, 497, 495, 495, 496, 495, 495, 495, 493, 493, 499, 496, 494, 498, 495, 496, 495, 496, 496, 496, 497, 500, 493, 500, 496, 497, 492, 497, 495, 496, 495, 493, 497, 495, 498, 493, 493, 495, 496, 496, 495, 494, 496, 495, 495, 495, 495, 494, 502, 494, 495, 495, 496, 495, 495, 495, 495, 495, 495, 496, 496, 496, 495, 495, 492, 500, 495, 495, 495, 495, 495, 494, 495, 496, 495, 495, 496, 495, 496, 495, 495, 495, 495, 495, 495, 495, 495, 494, 495, 495, 495, 495, 495, 495, 496, 495, 496, 496, 495, 495, 495, 496, 496, 496, 496, 495, 496, 496, 496, 496, 496, 496, 496, 496, 496, 496, 496, 496, 497, 496, 496, 496, 496, 496, 496, 496, 496, 496, 496, 496, 496, 496, 496, 496, 496, 496, 496, 496, 496, 496, 496, 496, 496, 496, 496, 496, 496, 496, 496, 496, 496, 496, 496, 496, 496, 496, 496, 496, 496, 496, 496, 496, 496, 496, 496, 496, 496, 496, 496, 496, 496, 496, 496, 496, 496, 496, 496, 496, 496, 496, 496, 496, 496, 496, 496, 496, 496, 496, 496, 496, 496, 497, 496, 496, 496, 496, 496, 496, 496, 496, 496, 496, 496, 496, 496, 496, 496, 496, 496, 496, 496, 496, 496, 496, 496, 496, 496, 496, 496, 496, 496, 496, 496, 496, 496, 496, 496, 496, 496, 497, 496, 496, 496, 496, 496, 497, 496, 496, 496, 496, 496, 496, 496, 496, 496, 496, 497, 496, 496, 496, 496, 496, 497, 496, 497, 496, 496, 496, 496, 497, 496, 496, 496, 496, 496, 496, 496, 496, 496, 496, 496, 496, 496, 496, 496, 496, 496, 496, 496, 496, 496, 496, 496, 496, 496, 496, 496, 496, 496, 496, 496, 497, 496, 496, 495, 497, 496, 496, 496, 496, 496, 496, 496, 496, 496, 496, 497, 496, 496, 496, 496, 497, 496, 496, 496, 496, 496, 496, 496, 496, 496, 496, 496, 496, 496, 497, 496, 496, 496, 496, 496, 496, 496, 496, 496, 496, 496, 496, 496, 496, 496, 496, 496, 496, 496, 496, 496, 496, 496, 496, 496, 496, 496, 496, 496, 495, 496, 496, 496, 496, 496, 496, 496, 496, 496, 496, 496, 496, 496, 496, 496, 497, 496, 496, 496, 496, 496, 496, 496, 496, 496, 496, 496, 496, 496, 496, 496, 496, 496, 496, 496, 496, 496, 496, 496, 496, 496, 496, 496, 496, 496, 496, 496, 496, 496, 496, 496, 496, 496, 496, 496, 496, 496, 496, 496, 496, 496, 496, 496, 496, 496, 496, 496, 496, 496, 496, 496, 496, 495, 496, 496, 496, 496, 495, 496, 496, 496, 496, 496, 496, 496, 496, 496, 496, 496, 496, 496, 496, 496, 496, 497, 496, 496, 496, 496, 496, 496, 496, 496, 496, 496, 496, 496, 496, 496, 496, 496, 496, 496, 495, 496, 496, 497, 496, 496, 496, 496, 496, 496, 496, 496, 496, 496, 496, 496, 496, 496, 496, 496, 495, 496, 496, 496, 496, 496, 496, 495, 496, 496, 496, 496, 496, 496, 496, 496, 496, 496, 496, 496, 496, 496, 496, 496]"
right,"[496, 496, 496, 496, 496, 495, 496, 496, 496, 496, 496, 496, 496, 496, 496, 496, 496, 496, 497, 496, 496, 496, 495, 496, 496, 496, 496, 496, 496, 496, 496, 496, 496, 496, 496, 496, 496, 496, 496, 496, 496, 495, 496, 496, 497, 496, 496, 496, 496, 495, 496, 496, 496, 496, 496, 496, 496, 496, 496, 496, 496, 496, 496, 496, 496, 496, 496, 496, 497, 496, 496, 496, 496, 496, 496, 496, 496, 496, 496, 496, 496, 496, 496, 496, 496, 496, 496, 496, 496, 496, 496, 496, 496, 496, 496, 496, 496, 496, 496, 496, 496, 496, 496, 496, 497, 496, 495, 496, 496, 495, 496, 496, 496, 496, 496, 496, 496, 496, 496, 496, 496, 496, 496, 496, 496, 496, 495, 496, 496, 496, 496, 496, 495, 496, 496, 495, 496, 495, 495, 496, 496, 496, 496, 496, 496, 496, 496, 496, 495, 496, 496, 496, 496, 496, 496, 496, 496, 495, 496, 496, 496, 496, 496, 496, 496, 489, 498, 497, 496, 495, 486, 491, 499, 495, 487, 502, 499, 495, 482, 506, 506, 502, 496, 466, 512, 510, 481, 498, 485, 501, 519, 484, 485, 484, 495, 514, 491, 460, 502, 480, 491, 507, 494, 502, 493, 494, 500, 484, 484, 522, 482, 502, 496, 500, 496, 503, 486, 495, 510, 505, 506, 495, 496, 493, 494, 499, 497, 481, 494, 492, 507, 495, 494, 505, 492, 498, 500, 499, 488, 501, 495, 501, 492, 498, 496, 492, 489, 497, 501, 512, 493, 495, 500, 495, 497, 495, 506, 503, 499, 505, 495, 491, 499, 495, 504, 495, 489, 496, 497, 500, 491, 496, 499, 494, 505, 493, 506, 496, 496, 496, 499, 495, 499, 486, 501, 482, 496, 497, 501, 495, 500, 495, 500, 498, 501, 496, 495, 499, 493, 496, 494, 483, 497, 495, 496, 496, 497, 496, 494, 497, 494, 496, 500, 496, 492, 498, 491, 502, 500, 496, 495, 495, 494, 495, 494, 499, 496, 495, 497, 498, 503, 493, 494, 495, 494, 496, 496, 503, 494, 497, 497, 495, 496, 494, 495, 493, 496, 493, 494, 494, 502, 496, 495, 494, 492, 498, 490, 497, 493, 495, 502, 495, 499, 496, 498, 495, 494, 494, 495, 496, 496, 495, 493, 493, 495, 492, 492, 499, 494, 495, 497, 493, 497, 495, 495, 493, 495, 495, 496, 495, 501, 495, 497, 491, 497, 495, 495, 497, 497, 494, 493, 495, 493, 495, 496, 493, 494, 495, 492, 495, 495, 496, 495, 490, 496, 493, 495, 493, 494, 496, 495, 495, 493, 498, 500, 495, 496, 495, 495, 493, 489, 495, 498, 498, 493, 495, 495, 497, 498, 494, 493, 498, 493, 496, 496, 499, 494, 495, 494, 501, 495, 494, 501, 491, 498, 494, 498, 495, 493, 495, 497, 496, 493, 500, 500, 491, 496, 496, 495, 496, 492, 496, 497, 495, 495, 496, 495, 495, 496, 493, 493, 496, 495, 496, 498, 495, 495, 496, 496, 495, 496, 497, 496, 491, 495, 493, 495, 498, 494, 497, 500, 497, 496, 491, 499, 495, 495, 496, 494, 494, 498, 495, 498, 496, 494, 495, 493, 497, 496, 495, 499, 495, 495, 496, 499, 496, 493, 501, 495, 499, 495, 495, 496, 495, 495, 496, 496, 492, 494, 501, 495, 499, 495, 495, 495, 495, 498, 494, 496, 495, 489, 496, 495, 499, 495, 486, 500, 493, 498, 501, 495, 496, 496, 495, 496, 495, 495, 494, 491, 499, 496, 501, 490, 499, 497, 497, 497]"
rest,"[488, 490, 495, 497, 495, 496, 493, 495, 495, 495, 496, 494, 494, 500, 491, 497, 496, 495, 495, 494, 500, 499, 496, 494, 501, 517, 498, 496, 496, 496, 496, 496, 496, 499, 491, 497, 495, 495, 494, 500, 495, 496, 488, 493, 507, 497, 488, 497, 495, 498, 495, 495, 495, 499, 495, 496, 490, 495, 496, 494, 496, 496, 494, 500, 495, 508, 497, 496, 499, 497, 495, 495, 498, 496, 495, 496, 496, 496, 496, 495, 495, 496, 494, 498, 495, 496, 489, 496, 499, 498, 496, 495, 496, 495, 496, 496, 495, 495, 495, 495, 496, 495, 496, 496, 495, 495, 496, 496, 496, 496, 496, 495, 495, 495, 495, 495, 495, 495, 495, 496, 495, 495, 495, 495, 495, 495, 495, 494, 495, 495, 495, 495, 495, 495, 494, 495, 495, 495, 495, 495, 495, 495, 495, 494, 495, 495, 495, 495, 495, 495, 495, 495, 495, 495, 495, 495, 495, 495, 495, 495, 495, 495, 495, 495, 495, 495, 495, 495, 495, 495, 495, 495, 495, 495, 495, 495, 495, 495, 495, 496, 495, 495, 495, 495, 495, 495, 495, 495, 495, 496, 495, 495, 495, 496, 495, 495, 495, 496, 495, 495, 495, 495, 496, 495, 495, 495, 495, 495, 495, 495, 496, 495, 496, 496, 495, 495, 495, 495, 496, 496, 495, 495, 495, 495, 495, 495, 495, 496, 495, 495, 495, 496, 495, 495, 495, 495, 495, 495, 495, 495, 495, 495, 495, 495, 496, 495, 495, 496, 495, 495, 495, 495, 496, 495, 495, 495, 495, 496, 496, 496, 495, 496, 495, 496, 496, 496, 495, 495, 496, 496, 496, 496, 496, 495, 495, 495, 495, 495, 496, 495, 495, 495, 495, 495, 495, 495, 495, 496, 496, 496, 495, 496, 495, 496, 496, 495, 495, 495, 495, 496, 495, 496, 495, 496, 496, 495, 495, 496, 496, 496, 496, 495, 495, 495, 496, 495, 495, 495, 496, 496, 495, 495, 495, 495, 495, 495, 495, 495, 496, 496, 495, 496, 495, 496, 496, 495, 495, 496, 495, 496, 496, 496, 496, 496, 496, 496, 495, 495, 496, 496, 495, 496, 495, 495, 496, 496, 496, 496, 496, 495, 495, 496, 495, 495, 496, 495, 496, 496, 496, 495, 496, 495, 496, 495, 496, 495, 495, 495, 495, 495, 496, 496, 495, 495, 495, 496, 495, 496, 496, 496, 495, 495, 495, 496, 495, 496, 496, 496, 495, 495, 495, 496, 496, 495, 496, 495, 496, 495, 496, 495, 495, 496, 496, 495, 496, 495, 496, 495, 496, 495, 496, 496, 496, 496, 496, 495, 495, 496, 495, 496, 495, 496, 496, 496, 495, 496, 496, 496, 496, 495, 496, 495, 495, 496, 495, 495, 495, 496, 496, 496, 496, 495, 495, 496, 495, 495, 496, 496, 496, 495, 496, 496, 495, 496, 496, 496, 496, 495, 496, 495, 495, 495, 496, 495, 496, 495, 495, 496, 496, 495, 496, 496, 496, 495, 496, 495, 495, 495, 496, 495, 495, 496, 496, 496, 496, 496, 495, 495, 496, 496, 495, 496, 495, 496, 496, 495, 495, 496, 496, 495, 496, 496, 496, 496, 496, 496, 496, 496, 496, 496, 495, 495, 495, 495, 495, 496, 495, 496, 495, 496, 495, 496, 496, 495, 496, 495, 496, 496, 496, 495, 495, 495, 496, 496, 495, 496, 496, 496, 496, 495, 496, 496, 495, 496, 495, 495, 495, 495, 496, 496, 495, 495, 495, 496, 495, 496, 495, 496, 496, 495, 496, 495, 496, 495, 496, 496, 496]"
right,"[496, 495, 496, 496, 495, 495, 496, 496, 495, 495, 496, 496, 495, 495, 496, 495, 495, 495, 495, 496, 496, 495, 495, 495, 495, 495, 495, 495, 495, 495, 495, 496, 496, 495, 495, 496, 495, 495, 495, 495, 496, 495, 496, 495, 496, 495, 496, 496, 495, 496, 495, 496, 496, 495, 495, 495, 495, 496, 496, 495, 496, 495, 496, 495, 495, 496, 496, 496, 495, 496, 495, 496, 495, 496, 495, 496, 495, 495, 496, 495, 495, 495, 496, 496, 496, 495, 496, 496, 495, 496, 496, 496, 496, 496, 496, 496, 495, 496, 496, 496, 496, 495, 496, 496, 496, 496, 496, 496, 496, 498, 493, 502, 496, 494, 495, 492, 487, 501, 496, 497, 489, 478, 510, 492, 490, 506, 492, 495, 502, 497, 496, 495, 495, 492, 492, 496, 480, 512, 504, 486, 493, 507, 495, 499, 487, 504, 496, 482, 509, 491, 512, 502, 496, 499, 487, 499, 492, 506, 495, 494, 486, 489, 490, 502, 503, 496, 497, 506, 489, 494, 500, 498, 501, 490, 490, 497, 511, 495, 502, 497, 500, 492, 509, 497, 495, 495, 495, 498, 495, 507, 503, 497, 496, 502, 488, 499, 495, 499, 485, 488, 506, 495, 498, 496, 495, 506, 491, 490, 502, 496, 495, 494, 494, 498, 493, 498, 495, 492, 496, 493, 504, 501, 496, 497, 488, 495, 495, 498, 496, 489, 489, 502, 494, 499, 496, 498, 496, 502, 490, 500, 497, 495, 496, 497, 495, 497, 494, 497, 495, 497, 499, 495, 493, 492, 496, 491, 490, 496, 501, 490, 497, 495, 496, 495, 499, 494, 494, 495, 489, 496, 494, 496, 496, 493, 499, 499, 492, 495, 495, 492, 495, 497, 498, 493, 501, 494, 500, 495, 495, 496, 499, 495, 491, 498, 494, 497, 494, 495, 488, 496, 496, 496, 496, 495, 496, 495, 495, 496, 498, 495, 492, 496, 498, 496, 496, 495, 495, 495, 498, 495, 494, 494, 497, 497, 497, 496, 495, 496, 499, 495, 491, 494, 494, 496, 495, 495, 498, 494, 496, 496, 495, 494, 499, 487, 494, 495, 499, 496, 496, 491, 499, 492, 494, 494, 498, 498, 496, 491, 496, 496, 489, 500, 493, 497, 496, 497, 494, 497, 495, 496, 498, 496, 495, 494, 495, 496, 497, 496, 497, 495, 495, 494, 496, 494, 496, 496, 495, 493, 496, 496, 496, 496, 496, 497, 497, 495, 493, 496, 494, 499, 497, 496, 499, 496, 496, 497, 495, 496, 496, 499, 496, 496, 495, 497, 494, 495, 500, 501, 497, 497, 497, 497, 496, 497, 496, 493, 496, 496, 496, 497, 495, 495, 498, 493, 497, 496, 496, 496, 496, 496, 498, 496, 496, 496, 497, 495, 499, 497, 497, 496, 497, 496, 495, 500, 496, 496, 494, 496, 498, 496, 497, 497, 496, 496, 497, 498, 495, 498, 496, 499, 493, 500, 498, 496, 496, 497, 496, 496, 497, 497, 497, 496, 497, 496, 499, 496, 499, 497, 497, 497, 500, 497, 498, 498, 498, 497, 497, 497, 497, 496, 500, 498, 498, 497, 497, 496, 497, 502, 497, 497, 497, 497, 497, 497, 495, 500, 496, 495, 496, 496, 496, 498, 496, 496, 497, 495, 499, 497, 497, 497, 497, 497, 495, 500, 497, 496, 499, 497, 498, 496, 499, 499, 498, 497, 497, 497, 492, 493, 496, 503, 496, 497, 497, 499, 497, 497, 497, 497, 497, 497, 496, 497, 497, 493, 498, 499, 495, 496, 497, 500, 496, 498, 502, 498, 497, 497]"
rest,"[497, 497, 497, 496, 495, 497, 497, 498, 497, 487, 495, 503, 497, 497, 497, 497, 496, 496, 498, 496, 498, 496, 497, 496, 497, 496, 496, 495, 497, 498, 497, 494, 501, 499, 497, 497, 497, 496, 497, 497, 497, 497, 493, 501, 497, 496, 497, 499, 495, 493, 496, 498, 497, 497, 498, 496, 496, 498, 497, 497, 497, 496, 495, 495, 504, 496, 497, 497, 497, 499, 497, 496, 497, 497, 496, 497, 497, 497, 496, 498, 488, 498, 497, 499, 499, 497, 497, 497, 497, 497, 496, 496, 496, 496, 498, 496, 497, 492, 497, 500, 496, 498, 497, 497, 496, 497, 497, 497, 497, 497, 497, 497, 496, 497, 497, 497, 496, 497, 497, 497, 496, 497, 497, 497, 497, 497, 497, 496, 496, 497, 497, 497, 496, 496, 497, 496, 496, 496, 496, 496, 496, 496, 496, 496, 496, 496, 496, 496, 497, 496, 496, 496, 496, 497, 497, 496, 497, 497, 497, 496, 496, 497, 496, 497, 497, 497, 496, 496, 496, 497, 496, 497, 497, 496, 496, 496, 497, 496, 497, 497, 498, 496, 497, 497, 497, 497, 497, 496, 497, 496, 497, 497, 497, 496, 496, 497, 497, 497, 497, 497, 497, 497, 496, 498, 497, 497, 496, 496, 497, 497, 496, 496, 496, 497, 497, 497, 497, 496, 497, 497, 497, 497, 496, 497, 497, 497, 497, 497, 497, 497, 497, 496, 497, 496, 497, 496, 497, 497, 497, 497, 497, 496, 497, 497, 496, 497, 497, 496, 496, 497, 498, 496, 496, 496, 496, 497, 496, 497, 497, 496, 497, 496, 497, 497, 497, 497, 496, 497, 498, 497, 496, 497, 497, 496, 497, 496, 496, 497, 496, 497, 497, 496, 497, 497, 497, 497, 496, 496, 497, 496, 497, 497, 498, 496, 496, 497, 496, 497, 497, 496, 497, 497, 497, 497, 496, 497, 496, 497, 496, 496, 497, 497, 496, 497, 496, 497, 497, 497, 497, 496, 496, 498, 496, 497, 497, 496, 497, 497, 497, 497, 497, 497, 497, 497, 497, 496, 497, 497, 497, 497, 497, 497, 496, 497, 497, 497, 497, 497, 498, 497, 497, 497, 497, 497, 496, 498, 497, 496, 497, 497, 497, 497, 496, 497, 497, 497, 497, 497, 497, 497, 496, 496, 497, 497, 497, 497, 497, 496, 497, 497, 497, 497, 497, 496, 498, 497, 497, 497, 497, 497, 497, 497, 497, 497, 496, 497, 497, 496, 496, 497, 497, 497, 497, 497, 497, 497, 497, 497, 497, 497, 498, 497, 497, 497, 496, 497, 497, 497, 497, 497, 497, 497, 496, 497, 496, 497, 497, 496, 497, 497, 497, 497, 497, 497, 496, 496, 497, 497, 498, 496, 496, 497, 497, 497, 497, 497, 497, 497, 497, 497, 497, 497, 497, 497, 497, 497, 497, 496, 497, 497, 497, 496, 497, 497, 496, 497, 497, 497, 497, 496, 497, 497, 497, 496, 496, 497, 496, 497, 497, 497, 499, 497, 496, 496, 496, 497, 497, 497, 497, 497, 497, 497, 497, 497, 496, 497, 496, 496, 497, 497, 497, 497, 496, 496, 496, 497, 497, 496, 496, 496, 497, 497, 497, 497, 497, 496, 497, 497, 497, 497, 496, 496, 497, 497, 496, 497, 497, 497, 497, 497, 497, 497, 497, 497, 496, 497, 497, 497, 496, 497, 496, 497, 497, 497, 497, 497, 496, 496, 497, 496, 497, 497, 497, 497, 496, 497, 497, 496, 496, 496, 497, 497, 496, 496, 496, 496, 496, 496, 496, 497, 497, 496, 496, 496, 496, 497]"
right,"[496, 497, 497, 497, 496, 497, 497, 496, 497, 496, 497, 496, 496, 496, 497, 496, 497, 496, 496, 497, 496, 496, 497, 497, 496, 496, 496, 496, 496, 496, 496, 496, 497, 496, 497, 497, 496, 496, 497, 497, 497, 496, 496, 496, 497, 496, 496, 496, 497, 497, 497, 497, 496, 497, 497, 497, 496, 496, 497, 496, 496, 497, 496, 496, 496, 496, 496, 496, 496, 496, 496, 497, 496, 496, 497, 496, 496, 497, 496, 496, 497, 496, 497, 496, 496, 497, 496, 496, 497, 497, 496, 497, 496, 496, 496, 497, 496, 497, 496, 497, 496, 496, 496, 497, 496, 496, 496, 496, 496, 496, 497, 496, 496, 496, 497, 496, 497, 497, 496, 496, 498, 496, 496, 497, 497, 496, 496, 496, 496, 497, 500, 494, 495, 496, 494, 499, 501, 494, 500, 494, 491, 499, 504, 485, 526, 484, 491, 493, 483, 514, 496, 487, 499, 514, 484, 497, 489, 492, 491, 491, 470, 507, 513, 503, 505, 497, 500, 501, 506, 495, 494, 504, 493, 501, 492, 502, 501, 498, 496, 497, 498, 503, 505, 509, 501, 491, 501, 493, 517, 509, 510, 499, 499, 499, 504, 497, 499, 488, 504, 502, 498, 494, 496, 493, 503, 496, 499, 499, 498, 497, 499, 496, 497, 499, 497, 490, 504, 496, 493, 497, 499, 493, 492, 504, 498, 509, 505, 497, 499, 497, 497, 501, 496, 501, 495, 497, 496, 499, 497, 497, 503, 497, 519, 499, 501, 498, 496, 496, 500, 497, 494, 502, 497, 498, 499, 494, 505, 499, 497, 495, 500, 497, 500, 497, 498, 497, 496, 496, 499, 496, 497, 498, 500, 497, 497, 497, 499, 496, 505, 498, 497, 492, 497, 494, 497, 496, 494, 501, 485, 503, 496, 500, 497, 497, 496, 497, 497, 497, 497, 496, 502, 493, 493, 493, 490, 500, 498, 496, 497, 495, 499, 498, 497, 497, 497, 494, 504, 495, 496, 493, 497, 500, 497, 497, 496, 496, 496, 498, 497, 496, 501, 497, 497, 494, 497, 496, 497, 497, 498, 497, 496, 497, 497, 498, 488, 499, 496, 495, 497, 495, 497, 496, 496, 497, 497, 497, 494, 493, 497, 498, 498, 497, 495, 496, 497, 496, 496, 496, 495, 497, 499, 496, 496, 497, 496, 496, 497, 497, 500, 498, 498, 496, 497, 497, 504, 495, 497, 495, 494, 495, 498, 497, 492, 498, 498, 498, 497, 497, 497, 496, 491, 497, 500, 500, 500, 501, 497, 496, 491, 496, 501, 496, 497, 496, 498, 496, 497, 495, 497, 494, 497, 493, 495, 497, 496, 502, 498, 497, 490, 497, 496, 497, 500, 497, 497, 497, 496, 495, 497, 497, 495, 499, 496, 502, 496, 498, 498, 496, 498, 497, 496, 496, 496, 498, 499, 497, 500, 497, 497, 496, 497, 497, 497, 500, 497, 498, 497, 497, 492, 496, 496, 497, 499, 496, 498, 497, 498, 499, 498, 497, 497, 495, 497, 497, 496, 497, 495, 498, 496, 497, 491, 502, 495, 495, 499, 496, 497, 497, 496, 496, 495, 501, 497, 498, 494, 498, 496, 502, 494, 497, 496, 490, 500, 496, 498, 496, 494, 497, 498, 498, 496, 495, 497, 497, 498, 495, 497, 498, 497, 496, 494, 498, 496, 500, 497, 499, 496, 497, 498, 500, 496, 497, 497, 495, 497, 494, 501, 495, 497, 498, 499, 496, 496, 494, 496, 496, 496, 499, 496, 500, 496, 497, 496, 495, 501, 496, 497, 498, 497, 499, 497, 497, 496, 497, 497, 498, 497]"
rest,"[495, 496, 495, 500, 497, 497, 497, 499, 500, 496, 493, 499, 492, 503, 499, 498, 496, 497, 495, 503, 497, 497, 497, 497, 497, 497, 492, 494, 492, 499, 497, 497, 497, 491, 497, 497, 496, 497, 497, 503, 497, 497, 498, 499, 493, 497, 493, 496, 493, 502, 497, 504, 498, 497, 498, 495, 499, 497, 497, 497, 497, 497, 497, 497, 490, 498, 501, 500, 498, 495, 495, 497, 496, 500, 491, 504, 499, 499, 497, 496, 497, 497, 497, 501, 497, 500, 496, 493, 505, 500, 497, 497, 497, 497, 497, 497, 488, 501, 499, 493, 496, 503, 501, 499, 497, 497, 497, 497, 497, 497, 497, 496, 497, 497, 496, 497, 497, 497, 498, 497, 497, 497, 497, 497, 497, 498, 497, 497, 497, 497, 497, 497, 497, 497, 496, 497, 497, 496, 496, 497, 496, 496, 497, 496, 496, 497, 497, 496, 496, 497, 497, 497, 497, 496, 497, 497, 497, 497, 497, 497, 497, 497, 497, 496, 497, 497, 496, 497, 497, 497, 497, 497, 497, 497, 497, 496, 497, 496, 496, 497, 497, 497, 497, 496, 496, 497, 496, 497, 496, 497, 496, 497, 497, 496, 497, 497, 497, 497, 497, 497, 497, 497, 497, 496, 497, 496, 497, 497, 496, 497, 497, 497, 497, 497, 497, 497, 497, 497, 497, 496, 497, 497, 497, 497, 497, 497, 497, 497, 497, 497, 497, 497, 497, 497, 497, 497, 497, 497, 497, 497, 497, 497, 497, 497, 497, 497, 497, 496, 497, 497, 497, 497, 497, 497, 497, 497, 497, 497, 496, 496, 497, 497, 497, 497, 497, 497, 496, 497, 497, 497, 497, 497, 497, 497, 497, 497, 496, 497, 497, 497, 497, 497, 497, 497, 497, 497, 497, 497, 497, 497, 497, 497, 497, 497, 497, 497, 497, 497, 497, 497, 497, 497, 496, 497, 497, 497, 497, 497, 497, 497, 497, 497, 497, 497, 497, 497, 497, 497, 497, 497, 497, 497, 497, 497, 497, 497, 497, 497, 497, 497, 497, 497, 497, 497, 497, 497, 497, 497, 497, 497, 497, 497, 497, 497, 497, 497, 497, 496, 497, 497, 497, 497, 497, 497, 497, 497, 497, 497, 497, 497, 497, 497, 497, 497, 497, 497, 497, 497, 497, 496, 497, 497, 497, 497, 497, 497, 497, 497, 496, 497, 497, 497, 497, 497, 497, 497, 497, 497, 497, 497, 497, 497, 497, 497, 497, 497, 497, 497, 497, 497, 497, 497, 497, 497, 497, 497, 497, 497, 497, 497, 497, 497, 497, 497, 497, 497, 497, 496, 496, 497, 497, 496, 497, 497, 497, 497, 496, 497, 497, 497, 497, 497, 497, 497, 497, 497, 497, 497, 496, 497, 497, 497, 497, 496, 497, 497, 497, 497, 497, 497, 497, 496, 497, 497, 497, 496, 497, 497, 497, 496, 497, 497, 497, 497, 497, 497, 496, 497, 497, 497, 496, 497, 497, 497, 497, 497, 497, 497, 497, 497, 497, 497, 497, 496, 497, 497, 497, 497, 497, 497, 497, 497, 497, 497, 497, 497, 496, 497, 496, 497, 497, 497, 497, 497, 497, 497, 497, 497, 497, 497, 497, 497, 497, 496, 497, 497, 497, 497, 497, 497, 497, 496, 497, 497, 496, 497, 497, 497, 497, 497, 496, 497, 497, 497, 497, 497, 497, 496, 497, 497, 497, 497, 497, 497, 497, 497, 496, 496, 496, 497, 497, 497, 496, 497, 497, 497, 497, 496, 496, 496, 496, 497, 497, 497, 497, 497, 496, 497, 496, 497, 497, 496, 496, 497, 497, 497, 497]"
right,"[497, 497, 497, 497, 497, 496, 497, 497, 496, 496, 497, 497, 497, 497, 497, 496, 497, 497, 496, 497, 496, 497, 497, 497, 496, 497, 497, 496, 496, 497, 496, 497, 497, 497, 496, 497, 497, 497, 497, 497, 497, 497, 497, 497, 497, 497, 497, 497, 497, 496, 497, 496, 496, 497, 496, 496, 497, 497, 496, 496, 496, 496, 497, 496, 496, 496, 496, 496, 497, 496, 497, 496, 496, 496, 496, 496, 496, 497, 496, 497, 497, 496, 496, 497, 497, 496, 496, 496, 497, 496, 496, 496, 496, 496, 496, 496, 496, 496, 496, 497, 497, 496, 496, 497, 501, 496, 499, 492, 498, 497, 494, 499, 493, 488, 501, 488, 504, 510, 497, 492, 498, 496, 505, 488, 494, 501, 498, 496, 493, 496, 497, 488, 515, 500, 495, 498, 491, 499, 489, 500, 494, 477, 499, 522, 497, 507, 500, 497, 498, 499, 495, 500, 496, 499, 485, 511, 496, 495, 493, 502, 499, 497, 497, 497, 489, 496, 494, 497, 496, 495, 500, 492, 496, 506, 495, 496, 498, 499, 496, 495, 497, 501, 497, 496, 496, 494, 503, 503, 501, 487, 497, 496, 498, 501, 502, 497, 495, 495, 497, 496, 499, 494, 499, 496, 500, 499, 493, 498, 488, 496, 495, 496, 500, 496, 496, 500, 498, 496, 493, 501, 496, 506, 494, 497, 498, 489, 497, 498, 490, 495, 499, 497, 492, 496, 502, 495, 497, 495, 497, 494, 502, 498, 494, 497, 496, 499, 488, 500, 500, 494, 496, 500, 495, 497, 488, 497, 499, 498, 495, 496, 496, 492, 501, 497, 497, 494, 496, 496, 487, 500, 502, 492, 498, 496, 495, 497, 496, 496, 496, 495, 501, 494, 497, 496, 496, 495, 495, 490, 496, 495, 495, 495, 498, 497, 497, 495, 496, 498, 493, 497, 497, 496, 494, 492, 498, 495, 498, 497, 496, 496, 499, 496, 496, 494, 494, 498, 496, 494, 497, 496, 495, 497, 494, 494, 499, 497, 496, 497, 497, 494, 496, 496, 497, 497, 496, 495, 494, 495, 497, 496, 495, 496, 496, 497, 494, 499, 497, 496, 496, 497, 496, 496, 495, 496, 498, 496, 496, 496, 490, 505, 495, 497, 497, 496, 497, 495, 493, 496, 496, 497, 494, 497, 493, 497, 496, 499, 496, 496, 498, 496, 498, 496, 495, 496, 497, 491, 495, 496, 497, 496, 497, 494, 496, 501, 497, 492, 497, 496, 495, 496, 496, 496, 493, 495, 497, 495, 495, 496, 497, 496, 496, 494, 497, 496, 493, 496, 498, 496, 496, 494, 496, 496, 496, 496, 498, 496, 496, 493, 498, 496, 496, 496, 497, 496, 495, 492, 495, 496, 495, 496, 496, 497, 495, 495, 496, 496, 496, 491, 499, 496, 498, 499, 496, 492, 497, 497, 496, 496, 495, 496, 496, 493, 497, 495, 495, 495, 498, 496, 495, 496, 497, 495, 496, 497, 496, 495, 497, 497, 491, 496, 497, 495, 497, 494, 496, 497, 498, 496, 496, 496, 498, 497, 496, 495, 494, 496, 496, 494, 498, 496, 497, 494, 497, 495, 496, 495, 497, 496, 496, 497, 496, 494, 496, 496, 498, 497, 494, 499, 496, 496, 500, 492, 495, 499, 496, 496, 499, 495, 497, 497, 494, 497, 496, 494, 497, 495, 496, 497, 496, 496, 496, 497, 496, 497, 499, 496, 496, 496, 496, 491, 496, 497, 500, 494, 495, 496, 496, 498, 497, 497, 496, 496, 496, 498, 496, 496, 496, 497, 497, 492, 497, 494, 500, 494, 493, 503, 506]"
rest,"[499, 498, 496, 499, 497, 493, 498, 496, 497, 497, 497, 497, 477, 506, 498, 494, 497, 496, 501, 498, 499, 495, 495, 497, 494, 494, 504, 500, 499, 497, 497, 494, 499, 496, 497, 496, 496, 495, 498, 496, 497, 505, 497, 500, 494, 499, 498, 497, 497, 497, 497, 496, 495, 498, 498, 498, 503, 497, 499, 498, 494, 497, 499, 498, 498, 497, 496, 497, 496, 497, 497, 497, 497, 497, 495, 500, 495, 498, 497, 496, 497, 496, 496, 500, 497, 497, 497, 496, 497, 497, 496, 497, 497, 497, 497, 496, 497, 499, 495, 496, 496, 498, 497, 496, 497, 497, 496, 496, 497, 496, 496, 496, 497, 497, 497, 496, 497, 496, 496, 497, 497, 497, 497, 497, 497, 496, 497, 496, 497, 497, 497, 496, 496, 497, 496, 496, 496, 496, 497, 496, 497, 496, 496, 496, 497, 496, 497, 496, 496, 497, 497, 496, 496, 497, 496, 497, 497, 496, 496, 497, 496, 498, 497, 496, 497, 496, 497, 497, 496, 496, 496, 497, 496, 496, 497, 497, 496, 497, 497, 497, 497, 497, 497, 495, 496, 499, 497, 496, 496, 496, 496, 497, 497, 497, 496, 497, 497, 497, 496, 496, 497, 496, 496, 496, 496, 496, 496, 496, 496, 496, 497, 496, 496, 497, 496, 497, 496, 496, 496, 497, 497, 496, 496, 497, 497, 497, 496, 497, 497, 497, 497, 496, 497, 496, 496, 496, 496, 497, 496, 497, 496, 497, 497, 496, 497, 497, 496, 496, 497, 497, 496, 496, 496, 496, 496, 497, 496, 496, 496, 496, 496, 497, 496, 497, 496, 497, 497, 496, 497, 496, 496, 496, 496, 497, 496, 497, 496, 496, 496, 497, 496, 497, 497, 496, 497, 496, 496, 496, 496, 497, 497, 496, 497, 497, 496, 497, 496, 497, 497, 496, 497, 497, 496, 497, 496, 497, 496, 496, 496, 496, 497, 496, 496, 497, 496, 497, 496, 496, 497, 497, 496, 496, 497, 496, 497, 496, 497, 496, 496, 497, 496, 496, 496, 497, 496, 497, 497, 497, 496, 497, 496, 496, 497, 497, 497, 497, 497, 497, 497, 497, 497, 497, 497, 497, 497, 497, 497, 497, 497, 496, 497, 496, 497, 496, 496, 497, 497, 496, 497, 497, 496, 496, 496, 496, 497, 496, 496, 496, 497, 497, 497, 497, 496, 496, 497, 497, 497, 497, 497, 497, 496, 497, 496, 496, 497, 497, 496, 497, 497, 497, 496, 496, 497, 497, 497, 496, 496, 497, 496, 497, 497, 496, 496, 497, 497, 496, 497, 497, 496, 497, 496, 496, 496, 497, 497, 496, 496, 496, 497, 496, 497, 497, 496, 497, 497, 497, 497, 497, 496, 497, 497, 497, 496, 497, 497, 497, 496, 497, 497, 497, 497, 496, 497, 497, 497, 496, 496, 497, 497, 497, 496, 496, 497, 497, 497, 497, 497, 497, 496, 497, 497, 496, 496, 496, 497, 497, 496, 497, 496, 497, 497, 496, 497, 497, 497, 497, 497, 496, 497, 497, 496, 497, 496, 497, 497, 496, 496, 497, 496, 497, 497, 496, 497, 496, 497, 497, 496, 496, 497, 497, 497, 497, 497, 496, 497, 497, 496, 496, 497, 496, 497, 497, 497, 496, 496, 497, 496, 497, 497, 497, 497, 496, 497, 497, 496, 497, 496, 496, 497, 496, 496, 496, 496, 497, 497, 496, 497, 497, 496, 497, 496, 496, 497, 497, 496, 497, 496, 497, 496, 496, 497, 497, 496, 496, 496, 497, 497, 497, 496, 497, 497, 496, 497, 496, 496, 497]"
right,"[496, 497, 497, 496, 497, 497, 497, 496, 497, 497, 496, 496, 496, 497, 497, 496, 496, 496, 496, 496, 497, 496, 497, 496, 496, 496, 496, 497, 496, 497, 496, 496, 497, 496, 496, 497, 496, 497, 497, 497, 497, 497, 497, 497, 497, 496, 497, 497, 496, 496, 496, 496, 497, 497, 496, 496, 497, 496, 497, 496, 496, 497, 496, 496, 496, 496, 496, 497, 497, 497, 496, 497, 496, 496, 497, 496, 496, 497, 496, 496, 497, 497, 497, 497, 497, 497, 496, 497, 496, 496, 497, 496, 496, 496, 497, 497, 497, 496, 497, 497, 496, 497, 497, 496, 498, 511, 498, 494, 505, 499, 498, 492, 497, 497, 495, 498, 504, 502, 501, 495, 506, 493, 489, 497, 499, 495, 496, 496, 502, 497, 499, 501, 497, 496, 497, 495, 499, 500, 491, 518, 495, 499, 490, 499, 501, 491, 503, 491, 496, 497, 496, 498, 496, 502, 496, 502, 493, 499, 498, 492, 501, 498, 496, 503, 497, 492, 502, 493, 513, 489, 500, 498, 499, 496, 498, 498, 499, 498, 500, 494, 499, 492, 497, 499, 496, 500, 494, 497, 495, 503, 496, 495, 497, 497, 496, 497, 498, 493, 503, 496, 496, 497, 498, 498, 490, 498, 496, 503, 495, 497, 497, 496, 495, 501, 498, 496, 497, 496, 496, 495, 494, 496, 495, 498, 497, 497, 495, 496, 497, 496, 497, 492, 495, 496, 499, 496, 496, 496, 496, 491, 497, 497, 495, 501, 493, 495, 495, 495, 497, 495, 496, 496, 496, 496, 497, 496, 496, 499, 498, 500, 496, 496, 496, 496, 496, 497, 495, 496, 497, 497, 493, 497, 500, 497, 505, 494, 497, 496, 496, 496, 496, 496, 496, 501, 496, 497, 490, 496, 498, 498, 501, 496, 493, 498, 495, 495, 495, 496, 497, 496, 495, 495, 496, 498, 498, 496, 495, 497, 497, 496, 497, 498, 498, 497, 495, 494, 497, 500, 501, 495, 495, 495, 496, 496, 495, 499, 496, 495, 495, 497, 496, 498, 492, 497, 496, 496, 496, 496, 495, 497, 496, 496, 498, 496, 496, 494, 496, 495, 500, 496, 498, 494, 497, 498, 495, 498, 497, 487, 496, 498, 496, 497, 502, 496, 495, 497, 498, 494, 496, 496, 497, 497, 496, 495, 498, 496, 495, 496, 503, 496, 494, 494, 495, 496, 495, 497, 496, 496, 497, 498, 500, 494, 495, 496, 496, 496, 497, 496, 496, 496, 502, 501, 494, 496, 496, 497, 497, 496, 496, 496, 496, 496, 495, 500, 494, 496, 496, 496, 495, 499, 496, 495, 496, 496, 496, 495, 498, 495, 496, 495, 496, 495, 496, 496, 497, 496, 496, 503, 494, 496, 494, 496, 495, 496, 496, 496, 496, 497, 496, 497, 496, 497, 496, 496, 496, 495, 499, 497, 494, 497, 496, 496, 499, 497, 495, 496, 496, 496, 496, 497, 496, 496, 496, 496, 496, 501, 498, 495, 497, 494, 498, 495, 496, 496, 496, 496, 496, 496, 496, 497, 497, 495, 497, 493, 495, 495, 498, 493, 498, 496, 495, 497, 494, 497, 495, 495, 496, 498, 495, 496, 496, 496, 496, 496, 498, 496, 495, 496, 495, 495, 497, 502, 498, 495, 496, 496, 496, 497, 498, 497, 496, 496, 496, 496, 496, 496, 496, 496, 498, 495, 498, 495, 495, 496, 496, 496, 497, 496, 497, 496, 496, 495, 496, 496, 496, 496, 496, 496, 498, 499, 497, 497, 496, 496, 496, 496, 497, 497, 496, 493, 496, 497, 498, 494, 496, 495]"
rest,"[496, 496, 496, 497, 497, 497, 497, 496, 497, 496, 496, 496, 496, 496, 496, 496, 497, 496, 496, 495, 495, 497, 496, 495, 501, 496, 496, 497, 495, 496, 499, 493, 498, 496, 496, 497, 496, 496, 496, 495, 496, 496, 496, 501, 495, 496, 496, 497, 496, 496, 496, 496, 496, 496, 497, 496, 496, 496, 497, 496, 496, 497, 497, 497, 497, 496, 496, 496, 496, 499, 496, 496, 496, 496, 496, 496, 496, 496, 496, 496, 496, 496, 496, 496, 497, 499, 497, 496, 496, 496, 497, 496, 496, 496, 496, 496, 496, 496, 496, 496, 497, 496, 496, 496, 496, 496, 496, 496, 496, 496, 496, 497, 496, 496, 496, 496, 496, 495, 496, 496, 496, 496, 496, 496, 496, 497, 496, 496, 496, 497, 496, 496, 497, 496, 496, 496, 496, 496, 496, 496, 497, 496, 496, 496, 497, 496, 496, 496, 496, 496, 496, 496, 497, 496, 496, 496, 496, 496, 496, 496, 497, 496, 496, 497, 496, 496, 496, 496, 496, 496, 496, 496, 496, 496, 496, 496, 496, 496, 496, 496, 496, 496, 497, 497, 496, 496, 496, 496, 496, 497, 496, 496, 496, 497, 496, 496, 496, 496, 496, 497, 496, 497, 497, 497, 497, 496, 497, 497, 496, 496, 497, 497, 496, 496, 497, 497, 497, 496, 496, 496, 497, 497, 497, 496, 496, 496, 496, 497, 496, 497, 496, 497, 497, 497, 497, 497, 497, 497, 497, 497, 496, 497, 497, 497, 496, 496, 497, 497, 496, 496, 497, 497, 497, 497, 497, 497, 497, 497, 497, 497, 497, 497, 497, 497, 497, 497, 497, 497, 497, 497, 497, 497, 497, 497, 497, 497, 496, 497, 497, 496, 496, 497, 497, 497, 497, 496, 497, 497, 497, 496, 497, 497, 497, 496, 497, 497, 497, 497, 497, 497, 497, 496, 497, 497, 497, 497, 497, 496, 496, 497, 497, 497, 497, 497, 497, 497, 497, 497, 497, 497, 497, 497, 497, 497, 497, 497, 497, 497, 497, 497, 497, 497, 497, 497, 497, 497, 497, 497, 497, 497, 498, 497, 497, 497, 496, 496, 496, 497, 496, 497, 497, 496, 497, 496, 497, 497, 497, 497, 497, 496, 497, 496, 497, 497, 497, 497, 497, 496, 497, 497, 496, 497, 497, 496, 497, 497, 497, 497, 497, 496, 497, 497, 497, 497, 497, 497, 496, 497, 497, 497, 496, 497, 497, 496, 497, 496, 497, 497, 497, 497, 497, 497, 497, 497, 497, 496, 497, 497, 497, 497, 497, 497, 497, 496, 496, 497, 497, 497, 497, 497, 497, 497, 497, 496, 497, 497, 497, 497, 497, 497, 497, 496, 497, 497, 497, 497, 497, 497, 497, 497, 497, 497, 497, 497, 497, 497, 496, 497, 497, 496, 497, 497, 497, 497, 497, 497, 497, 497, 497, 497, 497, 497, 497, 497, 496, 497, 497, 497, 497, 496, 497, 497, 496, 496, 496, 497, 497, 497, 496, 497, 496, 496, 497, 496, 496, 497, 497, 497, 497, 496, 497, 497, 497, 497, 496, 497, 497, 497, 496, 497, 497, 497, 496, 496, 497, 497, 496, 497, 497, 496, 497, 497, 496, 496, 497, 496, 497, 496, 497, 497, 497, 497, 497, 497, 496, 496, 497, 497, 497, 497, 497, 497, 496, 496, 497, 496, 496, 497, 497, 496, 497, 496, 497, 496, 497, 497, 496, 497, 497, 496, 496, 497, 497, 496, 496, 497, 496, 496, 497, 496, 497, 497, 496, 496, 496, 496, 496, 496, 496, 497, 496, 496, 497, 497, 497, 496, 496]"
right,"[496, 497, 496, 496, 497, 496, 496, 497, 496, 496, 496, 497, 497, 496, 496, 497, 496, 497, 496, 496, 497, 497, 497, 496, 497, 497, 496, 496, 497, 497, 496, 496, 496, 497, 497, 497, 496, 496, 496, 497, 496, 497, 496, 496, 497, 496, 496, 496, 497, 496, 496, 497, 496, 496, 496, 497, 496, 497, 496, 496, 496, 497, 497, 496, 497, 496, 496, 496, 496, 496, 496, 496, 497, 496, 497, 497, 497, 496, 496, 496, 496, 496, 496, 497, 497, 497, 496, 496, 497, 496, 497, 497, 496, 496, 496, 496, 496, 497, 497, 496, 497, 498, 499, 495, 497, 498, 499, 496, 495, 496, 499, 502, 496, 497, 491, 519, 505, 494, 491, 500, 506, 503, 496, 485, 497, 503, 496, 506, 496, 499, 508, 494, 491, 497, 496, 502, 496, 508, 489, 494, 500, 494, 498, 500, 495, 494, 496, 496, 502, 496, 493, 498, 496, 500, 495, 503, 495, 507, 498, 491, 498, 497, 498, 498, 499, 500, 499, 496, 502, 496, 498, 497, 496, 496, 503, 497, 499, 501, 499, 495, 495, 496, 496, 502, 496, 497, 496, 500, 497, 500, 497, 496, 497, 496, 503, 499, 497, 495, 497, 499, 496, 496, 496, 496, 502, 498, 495, 497, 497, 497, 496, 498, 496, 496, 496, 496, 499, 497, 496, 496, 501, 495, 494, 501, 495, 499, 496, 496, 496, 501, 497, 493, 497, 497, 496, 493, 496, 496, 496, 498, 496, 499, 496, 499, 499, 498, 496, 496, 497, 497, 495, 497, 495, 493, 501, 496, 496, 496, 497, 500, 495, 497, 498, 501, 501, 493, 496, 496, 496, 497, 496, 496, 497, 494, 496, 496, 496, 498, 495, 495, 496, 500, 496, 496, 496, 496, 497, 495, 502, 494, 498, 494, 496, 497, 496, 496, 500, 495, 493, 496, 497, 496, 496, 497, 497, 495, 498, 496, 496, 496, 498, 494, 496, 494, 496, 498, 495, 496, 496, 497, 496, 496, 496, 495, 496, 496, 496, 496, 496, 496, 496, 499, 496, 496, 495, 496, 496, 496, 494, 496, 496, 496, 496, 496, 497, 496, 496, 495, 497, 497, 495, 494, 498, 496, 498, 497, 496, 496, 495, 496, 497, 498, 496, 496, 496, 497, 495, 496, 496, 496, 496, 499, 496, 496, 495, 495, 496, 498, 497, 494, 497, 497, 495, 501, 496, 496, 497, 496, 495, 496, 497, 497, 496, 497, 495, 496, 495, 495, 497, 495, 495, 495, 495, 503, 496, 496, 496, 499, 496, 496, 496, 496, 496, 496, 495, 496, 496, 497, 502, 494, 497, 494, 497, 495, 496, 496, 498, 496, 497, 497, 494, 496, 495, 504, 494, 495, 496, 498, 495, 494, 496, 496, 496, 496, 496, 496, 498, 502, 494, 496, 498, 496, 496, 495, 499, 501, 495, 495, 496, 498, 499, 495, 495, 496, 499, 496, 495, 495, 501, 494, 496, 499, 495, 495, 502, 495, 496, 495, 497, 496, 499, 496, 497, 498, 493, 494, 496, 497, 496, 496, 495, 499, 495, 499, 493, 498, 496, 496, 500, 494, 499, 495, 495, 495, 496, 497, 496, 495, 494, 500, 495, 498, 496, 496, 496, 496, 496, 497, 498, 495, 493, 496, 498, 496, 497, 495, 496, 496, 496, 495, 499, 496, 497, 497, 497, 496, 499, 496, 501, 493, 495, 496, 499, 497, 496, 495, 496, 496, 498, 497, 496, 495, 495, 496, 496, 500, 494, 497, 495, 496, 495, 496, 496, 496, 495, 496, 496, 496, 496, 496, 496, 496, 497, 498, 496, 502, 496]"
rest,"[496, 496, 497, 496, 496, 498, 494, 497, 495, 495, 496, 495, 493, 497, 497, 496, 496, 496, 497, 496, 496, 496, 496, 496, 496, 496, 496, 497, 496, 497, 496, 496, 499, 497, 495, 495, 496, 496, 496, 496, 496, 496, 497, 501, 499, 493, 497, 496, 496, 496, 496, 496, 496, 499, 497, 497, 497, 495, 500, 496, 493, 497, 495, 495, 496, 496, 496, 497, 496, 496, 497, 501, 496, 495, 496, 496, 497, 496, 496, 496, 495, 497, 495, 496, 496, 501, 495, 496, 495, 497, 496, 496, 496, 496, 496, 496, 496, 497, 496, 497, 496, 496, 496, 497, 496, 497, 496, 497, 496, 495, 497, 496, 496, 496, 496, 495, 496, 496, 496, 495, 496, 495, 495, 495, 496, 496, 495, 495, 496, 495, 495, 495, 496, 496, 496, 496, 496, 496, 496, 496, 496, 496, 496, 495, 496, 496, 495, 496, 496, 496, 496, 495, 495, 495, 496, 496, 495, 496, 496, 496, 496, 496, 496, 496, 496, 496, 496, 496, 496, 496, 496, 496, 496, 496, 496, 496, 496, 495, 496, 496, 496, 495, 496, 496, 496, 496, 496, 496, 496, 496, 496, 496, 496, 496, 496, 496, 496, 496, 496, 496, 496, 496, 496, 496, 496, 496, 496, 496, 496, 496, 496, 496, 496, 496, 496, 496, 496, 496, 496, 496, 496, 496, 496, 496, 496, 496, 496, 496, 496, 496, 496, 496, 496, 496, 496, 496, 496, 496, 496, 496, 496, 496, 496, 496, 496, 496, 496, 496, 496, 496, 496, 496, 496, 496, 496, 496, 496, 496, 496, 496, 496, 496, 496, 496, 496, 496, 496, 496, 496, 496, 496, 496, 496, 496, 496, 496, 496, 496, 496, 496, 496, 496, 496, 496, 496, 496, 496, 496, 496, 497, 496, 496, 496, 496, 496, 496, 496, 496, 496, 496, 496, 496, 496, 496, 496, 496, 496, 496, 496, 496, 496, 496, 496, 496, 496, 496, 496, 496, 496, 496, 496, 496, 496, 496, 496, 496, 496, 496, 496, 496, 496, 496, 496, 496, 496, 496, 496, 496, 496, 496, 496, 496, 496, 496, 496, 497, 496, 496, 496, 496, 496, 496, 496, 496, 496, 496, 496, 496, 496, 497, 496, 496, 496, 496, 496, 496, 496, 496, 496, 496, 496, 496, 496, 496, 496, 496, 496, 496, 496, 496, 496, 496, 496, 496, 496, 496, 496, 496, 496, 496, 496, 496, 496, 496, 496, 496, 497, 496, 496, 496, 496, 496, 496, 497, 497, 496, 496, 496, 496, 496, 496, 496, 496, 497, 496, 496, 496, 496, 496, 496, 496, 496, 496, 496, 496, 496, 496, 496, 496, 496, 497, 496, 497, 496, 496, 496, 496, 496, 496, 496, 496, 496, 496, 496, 496, 496, 496, 497, 496, 496, 496, 496, 496, 496, 496, 497, 496, 496, 496, 496, 496, 496, 496, 496, 497, 496, 496, 496, 496, 496, 496, 496, 496, 496, 496, 496, 496, 496, 496, 496, 496, 497, 496, 496, 496, 496, 496, 496, 496, 496, 496, 496, 497, 496, 496, 496, 496, 496, 496, 496, 496, 496, 496, 496, 496, 496, 496, 496, 497, 496, 496, 496, 496, 496, 496, 497, 496, 497, 496, 496, 496, 496, 496, 496, 496, 496, 496, 496, 496, 496, 496, 496, 496, 496, 496, 496, 496, 496, 496, 496, 496, 496, 496, 496, 496, 496, 496, 496, 496, 496, 496, 496, 496, 496, 496, 497, 497, 496, 496, 496, 496, 496, 496, 496, 496, 496, 496, 496, 496, 496, 496, 496, 496, 496, 496, 496]"
right,"[496, 496, 496, 496, 496, 496, 496, 496, 496, 496, 496, 496, 496, 496, 496, 496, 496, 496, 497, 496, 496, 496, 496, 496, 496, 496, 496, 496, 496, 496, 496, 496, 496, 496, 496, 496, 496, 496, 496, 496, 496, 497, 496, 496, 496, 496, 496, 496, 496, 496, 496, 496, 497, 496, 496, 496, 496, 496, 496, 496, 496, 496, 496, 496, 496, 496, 496, 496, 496, 496, 496, 496, 496, 496, 496, 496, 496, 496, 496, 496, 496, 496, 496, 496, 496, 496, 496, 496, 496, 496, 496, 496, 496, 496, 496, 496, 496, 496, 496, 497, 497, 496, 496, 497, 496, 496, 496, 497, 500, 498, 496, 499, 491, 495, 496, 496, 499, 505, 496, 502, 501, 495, 493, 503, 498, 494, 499, 505, 519, 487, 487, 493, 498, 501, 496, 498, 500, 504, 483, 494, 490, 512, 490, 501, 493, 501, 505, 496, 493, 492, 522, 507, 492, 504, 506, 495, 496, 501, 490, 497, 506, 494, 501, 497, 492, 499, 495, 506, 511, 499, 486, 501, 491, 499, 501, 497, 499, 496, 496, 495, 499, 496, 513, 483, 503, 493, 495, 506, 504, 512, 491, 496, 501, 513, 489, 495, 495, 501, 493, 496, 503, 498, 499, 497, 496, 498, 499, 496, 501, 503, 496, 496, 507, 497, 491, 497, 500, 495, 496, 494, 509, 495, 498, 488, 493, 505, 501, 491, 502, 496, 496, 507, 495, 495, 492, 500, 495, 494, 496, 485, 497, 492, 493, 498, 494, 496, 492, 505, 504, 492, 495, 497, 493, 496, 494, 496, 497, 496, 502, 504, 494, 497, 496, 494, 501, 493, 496, 501, 496, 496, 500, 500, 495, 495, 496, 495, 494, 498, 499, 495, 498, 494, 504, 499, 500, 490, 496, 500, 499, 495, 492, 497, 496, 496, 511, 484, 495, 495, 500, 500, 493, 495, 496, 496, 502, 500, 498, 496, 496, 496, 498, 496, 499, 497, 496, 492, 496, 495, 495, 494, 501, 498, 503, 496, 493, 494, 496, 499, 494, 498, 497, 493, 496, 502, 500, 502, 493, 495, 498, 491, 496, 496, 497, 494, 496, 489, 495, 495, 493, 491, 497, 495, 495, 494, 496, 500, 503, 494, 495, 496, 496, 496, 506, 492, 497, 492, 500, 497, 498, 503, 496, 496, 492, 498, 496, 495, 495, 495, 501, 496, 495, 496, 497, 499, 494, 494, 503, 492, 495, 495, 495, 495, 497, 497, 492, 493, 497, 497, 493, 495, 495, 494, 505, 495, 495, 502, 485, 494, 496, 498, 492, 505, 492, 494, 496, 493, 494, 496, 507, 493, 496, 494, 496, 495, 499, 493, 496, 498, 508, 489, 502, 500, 493, 504, 493, 495, 497, 493, 500, 498, 501, 494, 500, 496, 496, 495, 491, 493, 501, 493, 501, 493, 496, 495, 498, 495, 495, 495, 505, 496, 496, 498, 498, 498, 492, 509, 493, 496, 496, 496, 500, 496, 495, 502, 490, 497, 492, 496, 493, 502, 494, 503, 492, 496, 494, 496, 496, 498, 500, 498, 494, 503, 497, 492, 493, 497, 494, 495, 498, 494, 494, 499, 491, 501, 499, 494, 497, 499, 495, 493, 496, 493, 500, 496, 495, 495, 498, 495, 495, 496, 493, 496, 497, 493, 498, 496, 502, 496, 496, 495, 496, 503, 498, 495, 498, 502, 492, 494, 500, 495, 495, 497, 496, 496, 494, 499, 500, 497, 493, 500, 495, 496, 495, 501, 501, 490, 497, 502, 496, 501, 504, 493, 498, 493, 497, 496, 496, 504, 496, 498, 494, 497, 497, 497, 495, 496]"
