label,input
right,"[494, 494, 494, 494, 494, 494, 494, 494, 494, 494, 494, 494, 494, 494, 494, 494, 494, 494, 494, 494, 494, 494, 494, 494, 494, 494, 494, 494, 494, 494, 494, 494, 494, 494, 494, 495, 494, 494, 494, 494, 494, 494, 494, 494, 494, 494, 494, 494, 494, 494, 494, 494, 494, 494, 494, 494, 494, 494, 494, 494, 494, 494, 494, 494, 494, 494, 494, 494, 494, 494, 494, 494, 494, 494, 494, 495, 494, 494, 494, 494, 494, 494, 494, 495, 494, 495, 494, 494, 494, 494, 494, 495, 494, 494, 494, 494, 494, 494, 494, 495, 494, 494, 494, 494, 494, 494, 494, 494, 494, 494, 494, 493, 494, 489, 494, 491, 494, 495, 493, 495, 495, 494, 497, 494, 498, 494, 494, 495, 490, 489, 510, 493, 497, 494, 500, 499, 497, 486, 498, 499, 494, 487, 494, 491, 497, 512, 491, 501, 495, 494, 503, 493, 507, 495, 507, 499, 494, 483, 526, 489, 501, 516, 494, 484, 509, 494, 471, 519, 488, 511, 495, 503, 470, 506, 500, 505, 487, 494, 497, 505, 488, 494, 502, 512, 499, 494, 498, 501, 501, 489, 496, 497, 501, 494, 497, 494, 512, 497, 490, 507, 497, 501, 500, 498, 494, 499, 483, 505, 492, 491, 498, 509, 492, 507, 494, 502, 494, 495, 495, 499, 495, 497, 498, 504, 493, 497, 498, 494, 487, 507, 487, 515, 502, 485, 497, 498, 487, 501, 492, 496, 497, 494, 504, 499, 491, 500, 494, 495, 497, 499, 485, 502, 499, 496, 494, 502, 495, 495, 489, 509, 502, 498, 497, 497, 502, 503, 497, 496, 498, 489, 495, 507, 481, 499, 500, 496, 495, 497, 494, 487, 513, 494, 496, 497, 495, 497, 497, 498, 496, 493, 497, 493, 503, 495, 494, 496, 495, 494, 496, 500, 496, 493, 499, 496, 494, 497, 494, 494, 503, 495, 488, 494, 504, 495, 494, 492, 493, 497, 493, 496, 494, 496, 486, 501, 491, 495, 482, 500, 494, 494, 495, 489, 501, 496, 495, 493, 494, 497, 491, 494, 498, 498, 483, 507, 479, 501, 499, 494, 501, 493, 489, 478, 502, 496, 496, 490, 505, 494, 494, 498, 495, 491, 492, 495, 496, 491, 491, 497, 492, 495, 495, 498, 492, 491, 501, 491, 496, 500, 484, 496, 483, 505, 497, 497, 493, 493, 492, 498, 495, 489, 494, 495, 493, 490, 494, 495, 495, 491, 489, 499, 495, 494, 497, 496, 491, 499, 495, 491, 496, 493, 494, 493, 495, 493, 481, 505, 494, 491, 494, 484, 507, 496, 481, 494, 491, 480, 510, 494, 494, 491, 489, 494, 493, 495, 494, 488, 494, 489, 489, 482, 494, 496, 511, 479, 482, 493, 510, 512, 481, 497, 486, 493, 493, 475, 501, 495, 494, 494, 495, 481, 495, 490, 497, 490, 493, 499, 493, 486, 493, 510, 503, 496, 493, 483, 500, 491, 493, 491, 491, 493, 500, 494, 494, 498, 492, 493, 498, 493, 487, 502, 493, 494, 493, 488, 498, 487, 495, 496, 492, 497, 489, 477, 509, 503, 500, 494, 488, 482, 482, 502, 500, 501, 497, 496, 495, 495, 494, 484, 490, 496, 499, 494, 498, 499, 500, 489, 494, 494, 494, 496, 483, 499, 500, 494, 493, 489, 494, 494, 496, 503, 485, 497, 490, 492, 496, 497, 491, 499, 494, 497, 493, 500, 485, 494, 485, 496, 493, 495, 491, 487, 502, 490, 501, 495, 494, 496, 505, 495, 494, 493, 496, 481, 489, 499, 494, 495, 491]"
rest,"[500, 490, 491, 491, 498, 495, 497, 501, 498, 495, 489, 508, 492, 494, 498, 487, 499, 483, 495, 494, 494, 492, 497, 494, 488, 492, 493, 490, 495, 494, 492, 494, 494, 491, 488, 494, 497, 494, 491, 496, 483, 494, 494, 501, 456, 493, 486, 485, 513, 476, 490, 502, 497, 496, 494, 492, 495, 485, 491, 479, 500, 494, 504, 498, 489, 486, 502, 493, 496, 486, 500, 493, 496, 492, 502, 489, 497, 496, 494, 497, 493, 477, 505, 503, 499, 496, 500, 507, 494, 500, 489, 478, 497, 505, 495, 502, 494, 497, 495, 491, 496, 486, 498, 494, 488, 500, 495, 491, 500, 495, 495, 495, 494, 495, 495, 495, 495, 496, 495, 496, 496, 496, 495, 495, 495, 496, 495, 494, 494, 494, 495, 494, 494, 495, 494, 494, 495, 494, 494, 494, 494, 494, 494, 494, 494, 494, 493, 494, 493, 494, 493, 493, 494, 493, 493, 493, 493, 494, 493, 493, 492, 493, 493, 493, 493, 493, 493, 493, 493, 493, 493, 493, 493, 493, 493, 493, 493, 493, 493, 493, 492, 493, 493, 492, 492, 492, 493, 492, 492, 493, 492, 492, 493, 492, 492, 493, 492, 492, 493, 493, 492, 492, 492, 493, 493, 493, 492, 493, 493, 493, 493, 493, 493, 492, 493, 493, 493, 493, 493, 493, 493, 493, 493, 492, 493, 492, 493, 493, 493, 493, 493, 493, 493, 492, 493, 493, 493, 493, 493, 493, 493, 493, 492, 493, 493, 493, 493, 493, 493, 493, 493, 493, 493, 493, 493, 493, 493, 493, 493, 493, 493, 493, 493, 493, 494, 493, 493, 493, 494, 493, 494, 494, 493, 494, 494, 494, 493, 494, 493, 493, 493, 493, 494, 493, 493, 493, 494, 494, 494, 493, 494, 493, 494, 494, 494, 494, 493, 493, 493, 493, 494, 494, 494, 493, 494, 494, 494, 494, 494, 494, 493, 494, 494, 494, 494, 494, 494, 493, 494, 494, 494, 494, 494, 494, 494, 494, 494, 494, 494, 494, 494, 494, 493, 494, 494, 494, 494, 494, 494, 494, 494, 494, 494, 494, 494, 494, 494, 494, 494, 494, 494, 494, 494, 494, 494, 494, 494, 494, 494, 494, 494, 494, 494, 494, 494, 494, 494, 494, 494, 494, 494, 494, 494, 494, 494, 494, 494, 494, 494, 494, 494, 494, 494, 494, 494, 494, 494, 494, 494, 494, 494, 494, 494, 494, 494, 494, 495, 494, 494, 494, 494, 494, 494, 494, 494, 494, 494, 495, 494, 494, 494, 494, 494, 494, 494, 494, 494, 494, 495, 494, 494, 494, 494, 494, 494, 494, 494, 494, 494, 494, 494, 494, 494, 494, 494, 494, 494, 494, 494, 494, 494, 494, 494, 495, 494, 494, 494, 495, 494, 494, 494, 494, 494, 494, 494, 494, 494, 494, 494, 494, 494, 494, 494, 494, 494, 494, 494, 494, 494, 494, 494, 494, 494, 494, 495, 495, 495, 494, 494, 495, 495, 494, 495, 494, 494, 495, 495, 494, 494, 495, 494, 494, 494, 494, 494, 494, 494, 495, 495, 495, 495, 494, 495, 495, 494, 494, 494, 494, 495, 494, 494, 495, 495, 494, 494, 495, 495, 495, 494, 494, 494, 494, 495, 494, 494, 494, 494, 495, 495, 495, 495, 495, 495, 495, 495, 495, 494, 495, 495, 495, 495, 495, 495, 494, 494, 494, 494, 495, 495, 495, 495, 495, 494, 495, 495, 495, 495, 495, 495, 495, 495, 495, 495, 495, 495, 495, 495, 495, 495, 495, 494, 495, 495, 495, 495, 495, 495]"
right,"[495, 495, 494, 495, 495, 495, 495, 495, 495, 495, 495, 494, 495, 495, 495, 495, 495, 495, 495, 495, 495, 495, 495, 495, 495, 495, 495, 495, 495, 495, 495, 495, 495, 494, 495, 495, 495, 495, 495, 494, 495, 495, 495, 495, 495, 495, 494, 494, 495, 495, 495, 495, 495, 495, 495, 495, 495, 495, 494, 495, 494, 495, 495, 495, 495, 495, 495, 495, 495, 495, 495, 495, 495, 495, 495, 495, 495, 495, 495, 495, 495, 495, 495, 495, 495, 495, 495, 495, 494, 495, 495, 495, 495, 494, 495, 494, 495, 495, 495, 494, 495, 495, 495, 495, 495, 495, 495, 495, 495, 495, 494, 494, 493, 489, 499, 496, 495, 493, 483, 488, 505, 490, 490, 495, 494, 494, 500, 487, 502, 494, 493, 496, 492, 497, 501, 498, 473, 485, 499, 495, 500, 491, 505, 487, 505, 494, 516, 488, 493, 492, 507, 495, 486, 509, 486, 505, 493, 497, 467, 493, 511, 500, 506, 502, 486, 501, 487, 512, 496, 502, 497, 492, 473, 505, 497, 502, 487, 499, 499, 503, 500, 501, 497, 498, 495, 499, 496, 493, 490, 495, 499, 498, 498, 500, 494, 500, 481, 497, 504, 497, 496, 493, 511, 495, 489, 501, 499, 518, 491, 489, 509, 492, 490, 498, 504, 494, 496, 489, 484, 499, 499, 498, 502, 492, 496, 494, 491, 507, 502, 501, 492, 488, 500, 501, 484, 504, 494, 495, 491, 502, 495, 494, 494, 498, 499, 494, 494, 503, 496, 494, 496, 488, 491, 500, 498, 497, 489, 498, 493, 502, 499, 495, 494, 497, 496, 502, 496, 492, 491, 504, 496, 493, 502, 492, 502, 504, 495, 500, 495, 494, 495, 495, 496, 498, 502, 494, 491, 510, 497, 489, 500, 497, 493, 496, 494, 493, 493, 492, 499, 486, 494, 493, 496, 494, 492, 494, 487, 506, 493, 496, 499, 494, 495, 494, 493, 497, 501, 496, 498, 492, 497, 502, 494, 494, 490, 494, 494, 495, 499, 494, 495, 493, 495, 495, 496, 494, 495, 498, 491, 499, 495, 493, 496, 496, 496, 493, 494, 494, 493, 496, 496, 489, 493, 491, 498, 491, 495, 494, 494, 492, 498, 498, 492, 490, 496, 496, 490, 497, 491, 495, 493, 499, 502, 494, 494, 494, 500, 495, 496, 491, 498, 492, 497, 487, 496, 501, 493, 491, 498, 494, 493, 496, 494, 490, 494, 494, 492, 493, 490, 496, 496, 498, 488, 497, 489, 496, 496, 493, 495, 492, 483, 501, 495, 494, 492, 495, 495, 490, 488, 496, 502, 497, 496, 495, 498, 494, 503, 494, 494, 491, 495, 491, 493, 498, 501, 493, 494, 497, 495, 503, 486, 494, 495, 493, 493, 495, 493, 495, 500, 496, 483, 503, 494, 492, 496, 495, 495, 494, 489, 502, 493, 498, 494, 494, 489, 494, 492, 500, 496, 494, 494, 494, 495, 494, 497, 495, 497, 487, 504, 498, 496, 492, 492, 495, 495, 494, 495, 490, 505, 497, 494, 497, 495, 498, 493, 490, 495, 493, 494, 494, 498, 498, 492, 485, 492, 497, 492, 493, 498, 498, 496, 496, 487, 494, 494, 492, 498, 492, 496, 497, 494, 494, 491, 488, 498, 498, 499, 482, 494, 494, 498, 496, 495, 494, 496, 494, 494, 492, 497, 494, 496, 498, 497, 490, 494, 498, 485, 494, 489, 492, 496, 488, 491, 500, 494, 497, 487, 498, 495, 489, 493, 500, 498, 498, 494, 492, 499, 493, 497, 498, 492, 498, 495, 492, 495, 494, 488]"
rest,"[494, 496, 494, 494, 495, 494, 490, 496, 497, 497, 494, 493, 498, 498, 493, 490, 495, 496, 493, 499, 495, 493, 504, 484, 495, 505, 494, 497, 496, 493, 491, 501, 494, 495, 491, 491, 493, 494, 489, 494, 499, 490, 505, 493, 496, 508, 495, 492, 496, 494, 493, 485, 502, 495, 497, 498, 494, 495, 491, 472, 504, 497, 493, 488, 465, 514, 509, 497, 493, 495, 495, 494, 494, 496, 492, 460, 506, 492, 494, 499, 495, 496, 481, 496, 500, 496, 494, 497, 495, 494, 494, 488, 496, 468, 500, 502, 489, 495, 503, 496, 495, 495, 495, 494, 495, 494, 494, 494, 495, 495, 494, 495, 496, 495, 496, 495, 495, 495, 495, 494, 495, 494, 494, 495, 495, 494, 494, 494, 494, 494, 494, 494, 494, 493, 494, 493, 493, 493, 493, 494, 493, 493, 493, 493, 493, 493, 493, 493, 493, 493, 493, 493, 493, 492, 493, 493, 493, 493, 493, 492, 493, 492, 493, 493, 493, 492, 493, 493, 493, 493, 493, 493, 493, 493, 493, 493, 493, 492, 492, 493, 493, 493, 493, 493, 493, 493, 493, 493, 493, 493, 493, 493, 493, 493, 493, 493, 493, 493, 493, 493, 493, 493, 494, 493, 493, 493, 493, 493, 493, 493, 493, 493, 493, 493, 493, 493, 493, 493, 493, 494, 493, 493, 493, 494, 493, 493, 493, 493, 493, 493, 493, 493, 494, 493, 494, 493, 493, 494, 493, 493, 493, 493, 494, 493, 494, 493, 494, 494, 494, 494, 494, 494, 494, 494, 494, 493, 494, 493, 493, 494, 494, 494, 494, 493, 493, 494, 494, 494, 494, 494, 494, 494, 494, 494, 494, 494, 494, 494, 494, 494, 494, 494, 494, 494, 494, 494, 494, 493, 494, 494, 494, 493, 494, 494, 494, 494, 494, 494, 494, 494, 494, 494, 494, 494, 494, 494, 494, 494, 494, 494, 494, 494, 494, 494, 494, 494, 494, 494, 494, 494, 494, 494, 494, 494, 494, 494, 494, 494, 494, 494, 494, 494, 494, 494, 494, 494, 494, 494, 494, 494, 494, 495, 494, 494, 494, 494, 494, 494, 494, 494, 494, 494, 494, 494, 494, 494, 494, 494, 494, 494, 494, 494, 494, 494, 494, 494, 494, 494, 494, 494, 494, 494, 494, 494, 494, 494, 494, 494, 494, 494, 494, 494, 494, 495, 494, 494, 494, 494, 494, 494, 494, 494, 494, 494, 494, 494, 494, 494, 494, 494, 494, 494, 494, 494, 494, 494, 494, 494, 494, 494, 494, 494, 494, 494, 494, 495, 495, 494, 494, 494, 494, 494, 494, 494, 494, 494, 494, 494, 494, 494, 494, 494, 494, 494, 494, 494, 495, 494, 494, 494, 494, 494, 494, 494, 494, 494, 494, 494, 494, 494, 494, 494, 494, 494, 494, 494, 494, 494, 495, 494, 494, 494, 494, 494, 494, 494, 494, 494, 494, 494, 494, 494, 494, 494, 494, 494, 494, 494, 494, 494, 494, 495, 494, 494, 494, 494, 494, 494, 494, 494, 494, 494, 494, 494, 494, 494, 494, 494, 494, 494, 494, 494, 494, 495, 494, 494, 494, 495, 494, 494, 494, 494, 494, 494, 495, 494, 494, 494, 494, 495, 495, 494, 494, 494, 494, 494, 494, 495, 494, 495, 495, 495, 495, 494, 494, 495, 495, 495, 494, 495, 495, 495, 494, 495, 494, 495, 494, 494, 494, 495, 494, 495, 495, 495, 495, 495, 495, 494, 495, 494, 495, 495, 495, 495, 495, 495, 494, 495, 494, 495, 494, 494, 495, 495, 494, 495]"
right,"[495, 495, 495, 494, 495, 495, 495, 495, 495, 495, 494, 495, 494, 495, 495, 495, 495, 495, 495, 494, 495, 495, 494, 495, 495, 495, 495, 494, 495, 495, 495, 494, 494, 495, 494, 494, 494, 494, 495, 494, 494, 495, 494, 495, 495, 495, 495, 495, 495, 495, 494, 495, 495, 494, 495, 494, 495, 495, 495, 494, 495, 494, 494, 494, 495, 495, 495, 494, 495, 494, 495, 494, 495, 494, 495, 495, 495, 494, 495, 494, 495, 494, 495, 495, 495, 495, 494, 494, 495, 494, 494, 495, 495, 494, 495, 495, 495, 495, 494, 495, 494, 494, 495, 494, 495, 495, 495, 494, 495, 494, 495, 494, 494, 490, 493, 494, 483, 498, 497, 499, 494, 495, 490, 497, 493, 515, 494, 494, 492, 490, 501, 495, 495, 496, 494, 490, 480, 506, 497, 494, 501, 494, 488, 498, 494, 500, 498, 497, 488, 482, 512, 508, 496, 496, 485, 493, 490, 506, 497, 493, 482, 508, 505, 506, 493, 497, 509, 483, 501, 517, 497, 502, 499, 485, 514, 488, 499, 497, 503, 493, 489, 501, 497, 493, 479, 488, 508, 493, 504, 485, 503, 488, 498, 502, 498, 495, 487, 503, 488, 512, 476, 515, 498, 508, 504, 501, 496, 496, 485, 501, 499, 495, 499, 477, 505, 495, 486, 498, 486, 491, 512, 513, 495, 488, 496, 500, 497, 507, 514, 476, 511, 492, 500, 485, 487, 514, 495, 493, 501, 502, 497, 499, 495, 491, 494, 506, 496, 501, 492, 500, 498, 495, 494, 509, 496, 507, 494, 503, 500, 502, 507, 498, 493, 494, 485, 488, 499, 502, 492, 509, 494, 496, 495, 510, 496, 491, 506, 497, 496, 494, 495, 494, 488, 505, 492, 497, 486, 482, 502, 500, 501, 495, 498, 498, 495, 496, 494, 495, 499, 495, 486, 507, 498, 495, 491, 501, 499, 501, 494, 493, 498, 496, 499, 494, 495, 487, 497, 490, 499, 493, 496, 493, 493, 499, 492, 499, 495, 505, 493, 500, 492, 502, 491, 498, 494, 495, 494, 494, 504, 494, 494, 495, 498, 499, 494, 494, 491, 501, 494, 492, 489, 497, 484, 484, 494, 499, 483, 509, 498, 498, 477, 513, 496, 498, 496, 498, 494, 494, 494, 498, 487, 505, 494, 495, 492, 494, 491, 500, 487, 494, 501, 495, 495, 498, 494, 484, 501, 494, 484, 491, 511, 494, 498, 492, 494, 496, 482, 508, 491, 493, 497, 493, 496, 494, 496, 484, 502, 499, 493, 496, 494, 491, 495, 492, 488, 489, 505, 502, 495, 495, 494, 496, 481, 497, 500, 489, 500, 500, 496, 496, 495, 495, 494, 501, 498, 498, 487, 494, 495, 491, 500, 496, 494, 498, 494, 494, 495, 496, 495, 495, 496, 494, 495, 493, 492, 493, 503, 490, 495, 494, 494, 493, 501, 488, 490, 497, 497, 497, 493, 494, 485, 502, 492, 489, 487, 502, 494, 490, 495, 499, 492, 497, 489, 500, 494, 497, 490, 493, 497, 492, 497, 489, 493, 492, 495, 490, 492, 491, 495, 495, 494, 495, 494, 493, 493, 496, 490, 495, 492, 498, 499, 496, 496, 495, 501, 492, 491, 489, 496, 496, 491, 482, 506, 498, 496, 495, 492, 487, 501, 494, 490, 490, 498, 502, 491, 490, 506, 498, 496, 494, 494, 492, 494, 494, 493, 489, 499, 486, 495, 506, 496, 488, 496, 494, 494, 490, 476, 497, 500, 495, 495, 495, 500, 488, 494, 496, 486, 494, 493, 494, 500, 495, 499, 491, 494, 494]"
rest,"[500, 494, 497, 494, 493, 495, 492, 497, 487, 493, 495, 499, 486, 498, 500, 493, 499, 494, 494, 495, 493, 495, 494, 490, 492, 495, 496, 493, 498, 497, 495, 494, 494, 494, 494, 494, 494, 494, 494, 494, 494, 494, 495, 493, 488, 498, 496, 495, 495, 494, 494, 494, 494, 494, 494, 494, 494, 494, 494, 494, 494, 494, 494, 495, 494, 494, 493, 493, 494, 494, 494, 494, 493, 493, 493, 494, 494, 494, 493, 494, 493, 493, 493, 494, 493, 493, 493, 493, 493, 493, 493, 493, 493, 493, 493, 493, 493, 493, 493, 493, 493, 493, 493, 493, 493, 493, 493, 493, 493, 493, 493, 493, 493, 493, 493, 493, 493, 493, 493, 493, 493, 493, 493, 493, 492, 493, 493, 493, 493, 493, 493, 493, 493, 493, 493, 493, 493, 493, 493, 493, 494, 493, 493, 493, 493, 493, 493, 493, 494, 493, 493, 493, 493, 493, 494, 493, 493, 493, 494, 493, 493, 493, 494, 493, 493, 493, 494, 493, 493, 494, 494, 493, 494, 493, 493, 494, 494, 493, 493, 494, 493, 494, 493, 493, 493, 494, 494, 494, 494, 494, 494, 494, 494, 493, 494, 494, 494, 494, 494, 494, 494, 494, 494, 493, 494, 494, 494, 494, 494, 494, 494, 494, 494, 494, 494, 494, 494, 494, 494, 494, 495, 494, 494, 494, 494, 494, 494, 494, 494, 494, 494, 494, 494, 494, 494, 494, 494, 494, 494, 494, 494, 494, 494, 494, 495, 494, 494, 494, 494, 494, 494, 494, 494, 494, 494, 494, 494, 494, 494, 494, 494, 494, 494, 494, 494, 495, 494, 494, 494, 494, 494, 494, 494, 494, 494, 494, 494, 494, 494, 494, 494, 494, 494, 494, 494, 494, 494, 494, 494, 495, 494, 494, 494, 494, 494, 495, 494, 494, 494, 494, 494, 494, 494, 494, 494, 494, 494, 494, 494, 494, 494, 494, 494, 494, 494, 494, 494, 494, 494, 494, 494, 494, 494, 494, 494, 494, 494, 494, 494, 494, 494, 494, 494, 494, 494, 494, 494, 495, 494, 494, 494, 494, 494, 494, 494, 494, 494, 494, 494, 494, 494, 494, 494, 494, 494, 494, 494, 494, 494, 494, 494, 495, 494, 494, 495, 494, 494, 494, 494, 494, 494, 494, 494, 494, 495, 494, 494, 494, 494, 494, 494, 494, 494, 494, 494, 494, 494, 494, 494, 494, 494, 494, 494, 494, 494, 494, 494, 494, 494, 494, 494, 495, 494, 494, 494, 494, 494, 494, 494, 494, 494, 494, 494, 494, 494, 495, 494, 494, 494, 495, 494, 494, 495, 494, 494, 494, 494, 494, 495, 494, 494, 494, 494, 494, 494, 495, 494, 494, 494, 494, 494, 495, 494, 494, 494, 494, 494, 494, 494, 495, 494, 494, 494, 494, 494, 494, 494, 494, 494, 495, 494, 494, 494, 494, 494, 494, 494, 495, 494, 494, 494, 494, 494, 494, 494, 495, 494, 494, 494, 494, 494, 494, 494, 495, 494, 494, 494, 494, 494, 494, 494, 494, 494, 494, 494, 494, 494, 495, 494, 495, 494, 494, 494, 494, 494, 494, 494, 494, 494, 494, 495, 495, 494, 494, 494, 494, 495, 495, 495, 494, 494, 494, 494, 494, 495, 494, 495, 494, 495, 494, 494, 494, 494, 494, 494, 495, 495, 495, 494, 494, 494, 494, 495, 495, 495, 495, 495, 494, 494, 494, 494, 494, 494, 495, 495, 495, 494, 494, 494, 495, 495, 494, 494, 494, 494, 494, 494, 494, 494, 494, 494, 494, 494, 494, 495, 495, 494]"
right,"[494, 494, 494, 494, 494, 495, 494, 494, 495, 494, 494, 495, 494, 494, 494, 494, 494, 494, 495, 494, 494, 494, 494, 494, 494, 494, 494, 495, 495, 495, 494, 494, 494, 495, 494, 495, 495, 494, 494, 495, 494, 494, 495, 495, 495, 494, 495, 495, 494, 494, 494, 494, 494, 494, 495, 495, 494, 494, 494, 494, 494, 494, 495, 495, 494, 494, 495, 494, 494, 494, 494, 494, 494, 494, 494, 495, 494, 494, 495, 495, 494, 495, 495, 494, 494, 494, 494, 494, 494, 494, 494, 494, 494, 495, 494, 495, 494, 494, 494, 495, 495, 493, 494, 495, 496, 495, 495, 496, 495, 494, 492, 496, 495, 494, 492, 495, 495, 495, 495, 488, 500, 496, 494, 495, 495, 496, 489, 488, 492, 498, 493, 496, 496, 496, 493, 497, 494, 486, 495, 489, 502, 487, 492, 499, 495, 496, 492, 506, 497, 500, 496, 489, 500, 479, 512, 499, 499, 487, 501, 496, 505, 470, 492, 505, 498, 491, 500, 501, 489, 508, 490, 501, 499, 501, 483, 498, 500, 478, 494, 500, 493, 492, 500, 489, 502, 500, 502, 483, 504, 504, 479, 501, 494, 493, 498, 488, 500, 495, 493, 494, 506, 486, 500, 500, 499, 494, 502, 497, 502, 495, 492, 498, 488, 492, 497, 494, 497, 493, 498, 496, 496, 496, 489, 496, 494, 489, 510, 498, 502, 485, 497, 509, 488, 490, 502, 492, 497, 495, 493, 494, 494, 490, 492, 502, 497, 502, 493, 492, 499, 497, 497, 494, 495, 504, 493, 494, 484, 492, 496, 490, 494, 498, 498, 501, 494, 495, 494, 498, 482, 495, 505, 495, 492, 494, 495, 499, 493, 495, 495, 494, 496, 502, 496, 491, 485, 500, 502, 497, 494, 491, 494, 494, 490, 498, 504, 487, 497, 495, 496, 489, 493, 505, 494, 505, 484, 501, 496, 495, 493, 490, 498, 500, 480, 493, 498, 500, 496, 500, 494, 492, 499, 496, 486, 497, 496, 494, 483, 491, 489, 500, 491, 491, 498, 492, 497, 494, 497, 495, 494, 493, 498, 497, 494, 497, 491, 490, 496, 496, 494, 492, 494, 496, 496, 496, 493, 490, 493, 501, 496, 489, 495, 497, 498, 494, 497, 486, 499, 490, 494, 494, 489, 496, 496, 495, 487, 497, 495, 489, 481, 505, 494, 491, 495, 495, 491, 495, 495, 494, 491, 497, 497, 494, 492, 498, 495, 496, 494, 497, 494, 487, 498, 494, 495, 495, 492, 496, 491, 495, 494, 494, 494, 494, 503, 490, 494, 496, 494, 497, 493, 497, 488, 496, 497, 494, 494, 494, 493, 489, 500, 494, 493, 494, 485, 495, 492, 494, 494, 494, 494, 494, 494, 494, 493, 494, 493, 492, 497, 491, 497, 487, 494, 495, 491, 487, 497, 492, 495, 496, 488, 491, 494, 495, 493, 494, 492, 494, 492, 496, 491, 488, 492, 494, 500, 494, 494, 493, 493, 493, 494, 492, 492, 494, 494, 494, 494, 494, 494, 494, 489, 493, 499, 496, 494, 494, 491, 495, 493, 493, 492, 495, 495, 493, 485, 501, 492, 494, 494, 494, 489, 492, 495, 494, 495, 490, 493, 493, 497, 493, 495, 494, 490, 492, 496, 490, 490, 494, 491, 494, 494, 495, 488, 494, 494, 488, 496, 493, 489, 495, 496, 493, 494, 492, 497, 495, 496, 493, 494, 494, 496, 491, 493, 495, 497, 494, 494, 494, 486, 494, 494, 490, 495, 498, 493, 494, 490, 492, 491, 503, 494, 493, 491, 493, 495, 494, 491, 494, 495]"
rest,"[495, 494, 494, 494, 490, 498, 497, 494, 496, 493, 483, 499, 491, 495, 497, 494, 495, 491, 488, 496, 493, 494, 498, 496, 497, 488, 497, 493, 495, 494, 494, 492, 491, 493, 494, 494, 495, 496, 491, 492, 494, 495, 493, 485, 494, 495, 492, 498, 494, 492, 488, 493, 492, 495, 498, 494, 495, 494, 493, 490, 499, 488, 499, 495, 495, 492, 496, 494, 491, 496, 495, 497, 495, 492, 494, 495, 497, 494, 494, 494, 483, 499, 482, 484, 495, 508, 496, 496, 495, 494, 494, 494, 494, 494, 484, 496, 501, 496, 492, 481, 496, 495, 496, 494, 494, 494, 494, 494, 494, 494, 494, 494, 495, 495, 494, 495, 495, 491, 494, 496, 495, 494, 495, 495, 495, 494, 494, 494, 494, 494, 494, 494, 494, 494, 494, 494, 494, 495, 494, 494, 495, 494, 494, 494, 493, 494, 494, 493, 493, 493, 493, 494, 493, 493, 493, 493, 493, 493, 493, 493, 493, 493, 493, 493, 493, 493, 493, 493, 493, 493, 493, 493, 493, 493, 493, 493, 494, 493, 493, 493, 494, 493, 493, 493, 493, 493, 493, 493, 494, 493, 494, 493, 493, 494, 493, 494, 493, 494, 493, 493, 493, 493, 494, 494, 493, 494, 494, 493, 493, 494, 493, 494, 493, 494, 494, 494, 494, 493, 493, 494, 494, 493, 494, 493, 493, 494, 493, 494, 493, 494, 494, 494, 494, 494, 494, 494, 494, 493, 493, 494, 494, 494, 494, 494, 494, 494, 494, 494, 494, 494, 494, 493, 494, 494, 494, 494, 494, 494, 494, 494, 494, 494, 494, 494, 494, 494, 494, 494, 494, 494, 494, 494, 494, 494, 494, 494, 494, 494, 494, 494, 494, 494, 494, 494, 494, 494, 494, 494, 494, 494, 494, 494, 494, 494, 494, 494, 494, 494, 494, 494, 494, 494, 494, 494, 494, 494, 494, 494, 494, 494, 494, 494, 494, 494, 494, 494, 494, 494, 494, 494, 494, 494, 494, 494, 494, 494, 494, 494, 494, 494, 494, 494, 495, 494, 494, 494, 494, 494, 494, 494, 494, 494, 494, 494, 494, 494, 494, 494, 494, 494, 495, 494, 494, 494, 494, 495, 494, 495, 494, 494, 494, 494, 494, 494, 494, 494, 494, 494, 494, 494, 494, 495, 494, 494, 494, 494, 494, 494, 494, 495, 494, 494, 494, 494, 494, 494, 494, 495, 494, 494, 494, 494, 494, 494, 494, 494, 494, 494, 495, 494, 495, 494, 494, 494, 494, 494, 494, 494, 495, 494, 494, 494, 494, 494, 494, 494, 494, 494, 494, 494, 494, 494, 494, 494, 494, 494, 494, 494, 494, 494, 494, 494, 495, 495, 494, 494, 494, 494, 495, 495, 495, 494, 494, 495, 494, 494, 494, 494, 495, 494, 495, 494, 494, 494, 494, 494, 495, 494, 494, 495, 494, 494, 494, 494, 494, 494, 494, 495, 494, 494, 494, 494, 494, 494, 495, 495, 494, 494, 494, 494, 495, 495, 495, 494, 495, 494, 494, 494, 494, 495, 494, 494, 494, 495, 495, 494, 495, 494, 494, 494, 494, 494, 494, 494, 495, 494, 494, 494, 494, 494, 495, 494, 495, 494, 494, 495, 494, 494, 495, 494, 494, 494, 494, 494, 494, 494, 494, 495, 495, 495, 494, 495, 494, 494, 494, 495, 494, 494, 494, 494, 495, 494, 495, 494, 495, 494, 495, 494, 495, 494, 495, 494, 494, 494, 494, 494, 494, 494, 495, 494, 494, 495, 495, 494, 494, 494, 495, 494, 495, 495, 494, 495, 494, 495, 495, 494]"
right,"[494, 494, 495, 494, 494, 495, 495, 495, 495, 494, 495, 495, 494, 494, 495, 495, 494, 495, 495, 495, 495, 494, 494, 494, 495, 495, 495, 495, 495, 495, 495, 495, 495, 495, 494, 494, 494, 494, 495, 494, 494, 494, 494, 495, 495, 494, 495, 494, 495, 495, 494, 494, 495, 495, 494, 494, 495, 494, 494, 495, 494, 494, 494, 494, 494, 495, 495, 494, 494, 495, 494, 494, 494, 495, 495, 494, 494, 495, 494, 494, 495, 495, 495, 494, 494, 495, 494, 495, 495, 494, 495, 494, 495, 494, 494, 495, 495, 494, 494, 494, 495, 495, 495, 495, 495, 494, 495, 494, 494, 495, 494, 494, 494, 494, 494, 495, 495, 495, 495, 495, 495, 495, 495, 495, 494, 495, 494, 495, 495, 494, 494, 494, 495, 494, 495, 494, 493, 492, 495, 488, 485, 500, 495, 495, 495, 498, 491, 498, 499, 496, 496, 493, 498, 494, 490, 495, 500, 493, 503, 491, 503, 497, 492, 501, 494, 505, 493, 501, 482, 498, 489, 489, 476, 518, 497, 493, 491, 496, 498, 487, 498, 499, 493, 507, 505, 494, 488, 501, 492, 479, 512, 494, 503, 498, 501, 496, 500, 497, 495, 494, 500, 499, 482, 500, 496, 494, 493, 485, 504, 494, 482, 504, 489, 489, 482, 500, 494, 506, 497, 493, 495, 494, 499, 500, 487, 499, 495, 500, 496, 498, 499, 497, 493, 493, 500, 496, 499, 499, 494, 493, 501, 492, 493, 492, 501, 495, 496, 496, 497, 499, 494, 497, 482, 496, 494, 500, 494, 499, 499, 494, 493, 497, 496, 496, 505, 499, 492, 495, 499, 491, 495, 495, 501, 494, 489, 501, 500, 492, 497, 489, 506, 487, 497, 495, 484, 508, 490, 495, 494, 493, 498, 492, 497, 489, 497, 489, 496, 494, 495, 503, 492, 496, 496, 493, 498, 488, 492, 491, 501, 496, 493, 494, 497, 490, 499, 494, 491, 505, 493, 488, 498, 494, 494, 497, 496, 493, 491, 496, 494, 497, 495, 496, 494, 498, 493, 496, 476, 498, 495, 494, 494, 488, 496, 491, 494, 501, 493, 494, 490, 497, 501, 497, 500, 492, 496, 496, 494, 494, 492, 495, 494, 488, 494, 494, 496, 494, 494, 494, 488, 502, 495, 496, 499, 494, 490, 496, 493, 494, 494, 494, 495, 494, 492, 498, 493, 492, 496, 490, 491, 499, 491, 497, 497, 493, 493, 497, 495, 488, 498, 489, 502, 494, 494, 495, 487, 495, 494, 494, 494, 498, 494, 487, 501, 494, 500, 495, 494, 495, 493, 494, 494, 493, 494, 495, 495, 494, 494, 493, 490, 494, 494, 494, 486, 494, 496, 494, 491, 497, 495, 495, 495, 491, 492, 483, 495, 494, 496, 495, 495, 494, 494, 494, 494, 498, 492, 493, 494, 494, 492, 497, 492, 497, 494, 495, 495, 498, 493, 495, 493, 494, 495, 497, 490, 497, 493, 493, 491, 494, 495, 496, 490, 493, 495, 492, 493, 497, 494, 494, 495, 494, 494, 490, 495, 494, 494, 494, 494, 494, 491, 495, 493, 496, 493, 496, 494, 494, 494, 494, 493, 494, 495, 490, 495, 494, 496, 495, 494, 492, 494, 492, 494, 494, 494, 491, 496, 494, 494, 495, 495, 491, 494, 494, 494, 490, 492, 495, 494, 494, 488, 494, 491, 494, 494, 489, 499, 492, 490, 496, 496, 493, 492, 499, 492, 502, 493, 498, 494, 494, 491, 498, 493, 495, 488, 499, 490, 495, 494, 494, 496, 493, 494, 494, 494, 490, 500, 495]"
rest,"[494, 494, 498, 494, 496, 494, 488, 495, 496, 495, 491, 490, 496, 495, 493, 497, 493, 498, 493, 492, 494, 495, 496, 494, 490, 493, 494, 494, 493, 494, 494, 494, 491, 494, 493, 493, 497, 492, 494, 494, 494, 490, 499, 496, 491, 496, 498, 496, 492, 498, 499, 493, 481, 503, 495, 494, 491, 496, 493, 498, 496, 493, 490, 498, 494, 492, 492, 500, 494, 494, 494, 495, 494, 495, 495, 494, 496, 495, 494, 495, 496, 494, 492, 494, 495, 492, 494, 494, 489, 494, 481, 497, 495, 495, 493, 498, 495, 495, 493, 493, 498, 494, 491, 495, 490, 495, 495, 490, 499, 496, 493, 491, 497, 493, 494, 495, 494, 494, 494, 491, 494, 487, 496, 499, 495, 494, 495, 495, 494, 496, 495, 495, 495, 496, 494, 496, 493, 495, 495, 494, 494, 494, 495, 494, 495, 495, 494, 494, 494, 494, 494, 493, 495, 493, 493, 491, 494, 496, 493, 494, 493, 493, 494, 494, 495, 494, 492, 492, 493, 493, 491, 493, 493, 492, 494, 493, 493, 492, 493, 493, 492, 493, 493, 493, 494, 493, 494, 493, 493, 493, 493, 494, 494, 493, 493, 493, 494, 493, 493, 493, 494, 493, 494, 493, 493, 493, 494, 493, 493, 494, 494, 494, 493, 493, 494, 493, 493, 493, 493, 494, 494, 494, 494, 494, 493, 494, 494, 493, 494, 493, 493, 494, 494, 493, 494, 493, 493, 494, 494, 494, 493, 494, 494, 494, 493, 494, 493, 494, 494, 494, 493, 493, 493, 494, 493, 494, 494, 493, 493, 493, 494, 493, 494, 493, 494, 493, 494, 494, 493, 494, 493, 493, 493, 495, 494, 495, 493, 493, 494, 494, 494, 494, 495, 494, 494, 494, 494, 494, 494, 494, 494, 493, 494, 494, 495, 494, 494, 494, 492, 493, 492, 492, 493, 494, 492, 492, 493, 492, 493, 494, 493, 493, 494, 493, 494, 493, 494, 494, 494, 493, 494, 493, 494, 494, 494, 494, 494, 496, 494, 493, 495, 494, 493, 494, 493, 492, 493, 494, 494, 493, 494, 493, 494, 494, 493, 493, 494, 494, 493, 493, 494, 494, 494, 494, 493, 494, 494, 494, 494, 494, 494, 494, 494, 494, 494, 494, 494, 494, 494, 494, 495, 494, 494, 494, 493, 494, 493, 493, 494, 494, 493, 494, 494, 494, 494, 494, 494, 494, 494, 494, 493, 494, 494, 494, 494, 494, 493, 494, 495, 493, 494, 494, 493, 494, 493, 493, 494, 492, 494, 494, 493, 494, 495, 493, 494, 494, 493, 494, 494, 493, 494, 494, 493, 495, 495, 494, 494, 497, 494, 494, 494, 494, 494, 494, 495, 493, 494, 494, 495, 494, 494, 494, 494, 494, 494, 494, 494, 494, 494, 493, 494, 492, 492, 494, 493, 493, 494, 493, 492, 494, 494, 495, 494, 494, 494, 494, 493, 494, 494, 494, 494, 494, 494, 494, 494, 494, 495, 497, 494, 493, 493, 494, 495, 495, 494, 494, 494, 494, 494, 494, 494, 494, 495, 495, 494, 494, 494, 494, 494, 494, 494, 494, 494, 494, 495, 494, 495, 494, 494, 494, 494, 495, 495, 495, 494, 494, 494, 494, 495, 495, 494, 494, 495, 495, 495, 494, 494, 494, 494, 494, 494, 495, 495, 494, 495, 494, 494, 494, 495, 494, 494, 494, 495, 494, 494, 495, 494, 494, 495, 495, 495, 495, 494, 495, 495, 495, 495, 495, 495, 495, 495, 494, 494, 495, 494, 495, 494, 494, 494, 495, 494, 495, 494, 495, 494, 494, 494]"
right,"[495, 495, 494, 494, 495, 495, 494, 494, 494, 494, 495, 495, 495, 494, 494, 495, 494, 494, 495, 495, 495, 495, 495, 494, 494, 494, 495, 494, 495, 494, 494, 495, 494, 494, 495, 494, 494, 495, 494, 495, 495, 495, 494, 495, 494, 494, 495, 494, 494, 495, 494, 495, 495, 495, 494, 494, 494, 495, 494, 495, 494, 495, 494, 494, 495, 494, 495, 495, 494, 494, 495, 494, 494, 494, 495, 494, 495, 495, 494, 495, 495, 494, 495, 494, 494, 494, 494, 494, 494, 494, 495, 495, 494, 495, 495, 495, 495, 494, 495, 494, 495, 495, 494, 495, 495, 494, 495, 495, 494, 495, 491, 493, 492, 497, 498, 490, 486, 492, 499, 502, 494, 490, 500, 493, 496, 499, 494, 500, 495, 496, 493, 497, 489, 498, 495, 491, 491, 493, 495, 506, 500, 490, 495, 490, 493, 504, 494, 487, 500, 500, 494, 501, 496, 496, 494, 496, 495, 493, 489, 493, 504, 491, 497, 493, 490, 502, 505, 493, 489, 494, 498, 502, 494, 497, 497, 498, 479, 503, 494, 498, 500, 493, 501, 501, 494, 498, 498, 492, 490, 495, 503, 497, 488, 499, 503, 503, 494, 498, 490, 497, 499, 491, 498, 494, 499, 494, 495, 483, 505, 489, 506, 493, 497, 502, 495, 486, 505, 497, 495, 492, 502, 491, 499, 494, 494, 497, 494, 502, 500, 495, 501, 494, 492, 499, 494, 494, 495, 498, 491, 494, 496, 493, 501, 494, 492, 489, 482, 498, 497, 492, 498, 499, 493, 495, 500, 493, 493, 500, 493, 496, 491, 490, 499, 499, 493, 495, 497, 494, 479, 503, 500, 484, 506, 494, 493, 499, 496, 497, 491, 496, 494, 486, 501, 489, 497, 494, 494, 497, 494, 494, 496, 482, 505, 497, 496, 490, 492, 494, 495, 495, 489, 500, 504, 498, 489, 490, 500, 494, 488, 498, 495, 493, 495, 496, 483, 508, 485, 504, 492, 497, 494, 496, 494, 487, 499, 494, 498, 496, 489, 494, 499, 493, 485, 499, 498, 497, 496, 495, 494, 491, 493, 495, 490, 500, 490, 495, 498, 496, 494, 494, 489, 494, 501, 497, 496, 497, 492, 499, 494, 496, 494, 495, 494, 494, 492, 494, 495, 499, 495, 494, 494, 495, 491, 498, 494, 490, 492, 500, 494, 495, 495, 496, 487, 498, 494, 491, 495, 494, 483, 497, 494, 494, 497, 490, 498, 489, 500, 486, 497, 494, 495, 494, 493, 488, 495, 494, 489, 496, 487, 502, 496, 494, 492, 492, 494, 499, 494, 495, 494, 488, 499, 493, 495, 495, 490, 498, 481, 497, 499, 495, 493, 494, 497, 495, 494, 493, 496, 495, 488, 492, 493, 495, 501, 497, 494, 491, 495, 493, 494, 497, 495, 492, 494, 492, 499, 495, 493, 495, 493, 492, 499, 492, 491, 498, 495, 495, 489, 499, 495, 493, 494, 493, 493, 496, 495, 495, 495, 494, 489, 496, 494, 494, 493, 484, 497, 494, 489, 498, 490, 498, 496, 490, 496, 488, 501, 496, 494, 494, 495, 494, 485, 488, 501, 502, 494, 494, 494, 483, 499, 498, 494, 494, 494, 491, 495, 497, 486, 498, 491, 494, 496, 494, 493, 497, 494, 497, 490, 498, 494, 493, 499, 492, 494, 494, 496, 494, 493, 494, 496, 494, 495, 494, 487, 493, 498, 493, 498, 495, 497, 494, 495, 494, 494, 494, 495, 494, 495, 495, 487, 498, 495, 489, 494, 496, 494, 494, 495, 495, 494, 494, 494, 486, 497, 495, 496, 495, 492]"
rest,"[495, 494, 496, 494, 494, 489, 490, 497, 496, 494, 488, 495, 494, 495, 494, 494, 494, 490, 494, 498, 494, 496, 494, 490, 493, 489, 491, 500, 495, 495, 494, 495, 492, 494, 494, 492, 497, 493, 492, 493, 490, 497, 495, 494, 493, 494, 496, 496, 494, 495, 495, 491, 497, 494, 493, 494, 497, 492, 493, 499, 478, 510, 495, 494, 496, 495, 495, 495, 494, 494, 494, 494, 494, 487, 496, 495, 493, 494, 492, 493, 500, 488, 494, 498, 496, 495, 494, 494, 494, 494, 495, 494, 493, 493, 496, 495, 493, 495, 496, 494, 494, 490, 499, 495, 495, 494, 494, 494, 495, 495, 495, 495, 494, 494, 495, 495, 494, 494, 494, 495, 495, 494, 495, 494, 494, 494, 494, 494, 494, 493, 493, 493, 493, 493, 493, 493, 493, 493, 493, 493, 494, 493, 494, 493, 493, 493, 493, 493, 494, 493, 492, 493, 493, 493, 493, 493, 493, 493, 493, 493, 493, 493, 493, 493, 493, 493, 493, 493, 493, 493, 493, 493, 493, 493, 493, 493, 493, 493, 493, 493, 493, 493, 493, 493, 493, 493, 493, 493, 494, 493, 493, 493, 493, 493, 493, 493, 493, 493, 493, 493, 493, 493, 493, 493, 493, 493, 493, 493, 493, 493, 493, 492, 492, 492, 493, 493, 493, 493, 493, 493, 493, 493, 492, 492, 492, 493, 492, 493, 492, 493, 492, 492, 493, 492, 493, 493, 492, 493, 492, 493, 492, 492, 492, 493, 493, 493, 493, 493, 493, 493, 493, 493, 493, 493, 493, 493, 493, 494, 493, 494, 493, 494, 493, 493, 494, 494, 493, 493, 494, 493, 494, 494, 493, 494, 494, 494, 494, 494, 494, 494, 493, 494, 494, 493, 494, 494, 493, 494, 494, 494, 494, 494, 494, 493, 494, 494, 494, 494, 494, 494, 494, 494, 494, 493, 496, 494, 493, 494, 493, 493, 494, 494, 493, 494, 493, 494, 493, 494, 495, 493, 493, 494, 494, 494, 494, 493, 493, 493, 494, 494, 494, 493, 494, 493, 494, 494, 494, 493, 494, 494, 494, 494, 493, 494, 494, 494, 494, 494, 494, 493, 494, 494, 494, 494, 493, 493, 493, 494, 494, 494, 494, 494, 494, 494, 494, 494, 494, 494, 494, 494, 494, 494, 494, 494, 494, 494, 494, 494, 494, 494, 494, 494, 495, 494, 494, 494, 494, 494, 494, 494, 494, 494, 494, 494, 494, 494, 494, 494, 495, 494, 494, 494, 494, 494, 494, 494, 495, 494, 494, 494, 494, 495, 494, 494, 495, 494, 494, 494, 494, 494, 494, 494, 494, 494, 494, 494, 494, 494, 494, 494, 494, 494, 494, 494, 494, 494, 494, 494, 494, 494, 494, 494, 494, 494, 494, 494, 494, 494, 494, 494, 494, 494, 494, 494, 494, 494, 494, 494, 494, 494, 494, 494, 494, 494, 494, 494, 494, 494, 494, 494, 494, 494, 494, 494, 494, 494, 494, 494, 494, 494, 494, 494, 494, 494, 494, 494, 495, 494, 494, 495, 494, 495, 494, 494, 495, 494, 495, 495, 494, 494, 494, 494, 494, 494, 495, 494, 494, 494, 494, 494, 494, 494, 494, 494, 494, 494, 494, 494, 494, 495, 495, 494, 495, 494, 494, 494, 495, 494, 495, 495, 495, 495, 494, 495, 494, 494, 495, 495, 495, 495, 495, 495, 495, 495, 495, 495, 495, 494, 495, 495, 495, 495, 495, 495, 494, 495, 495, 495, 495, 495, 495, 495, 495, 495, 495, 495, 495, 495, 495, 495, 495, 494, 494, 494, 495, 495]"
right,"[495, 494, 494, 495, 495, 495, 495, 495, 495, 494, 494, 495, 495, 495, 495, 495, 495, 495, 495, 495, 495, 495, 495, 495, 495, 495, 495, 495, 495, 495, 495, 495, 495, 495, 495, 496, 495, 495, 495, 495, 495, 495, 495, 495, 495, 495, 495, 495, 495, 495, 495, 495, 495, 496, 495, 495, 495, 496, 495, 495, 496, 495, 495, 495, 495, 495, 495, 495, 495, 496, 495, 495, 495, 495, 495, 495, 495, 495, 495, 495, 496, 495, 495, 495, 495, 495, 495, 495, 495, 495, 495, 495, 495, 495, 495, 495, 495, 495, 495, 495, 495, 495, 495, 495, 495, 495, 495, 495, 495, 495, 495, 494, 494, 493, 496, 495, 495, 493, 495, 495, 495, 489, 498, 499, 496, 496, 490, 500, 499, 497, 497, 497, 495, 495, 496, 496, 495, 496, 497, 496, 496, 494, 499, 497, 494, 494, 486, 507, 497, 491, 486, 493, 508, 495, 498, 497, 498, 498, 495, 495, 488, 499, 502, 495, 495, 498, 490, 494, 504, 491, 493, 495, 500, 495, 494, 495, 496, 495, 498, 494, 496, 500, 499, 492, 503, 499, 483, 497, 495, 499, 487, 500, 496, 492, 501, 494, 494, 496, 496, 494, 494, 496, 495, 499, 485, 492, 510, 499, 497, 494, 497, 493, 504, 493, 489, 499, 500, 496, 497, 492, 495, 496, 494, 482, 513, 496, 497, 496, 494, 499, 489, 493, 503, 498, 490, 487, 503, 496, 501, 494, 494, 483, 507, 494, 500, 501, 498, 496, 494, 496, 500, 495, 496, 484, 501, 500, 499, 494, 477, 497, 499, 492, 499, 492, 497, 496, 498, 493, 496, 498, 496, 498, 495, 491, 497, 497, 483, 492, 494, 500, 497, 495, 497, 490, 487, 499, 500, 494, 494, 496, 492, 500, 499, 492, 496, 494, 492, 497, 492, 497, 494, 493, 502, 495, 494, 496, 488, 494, 492, 499, 497, 490, 494, 480, 502, 496, 486, 495, 486, 508, 501, 489, 494, 495, 499, 495, 493, 497, 495, 493, 498, 494, 497, 489, 502, 499, 490, 494, 496, 486, 501, 504, 498, 494, 495, 491, 492, 497, 495, 487, 492, 500, 494, 493, 496, 496, 486, 501, 490, 503, 494, 496, 492, 491, 493, 499, 495, 485, 508, 491, 495, 493, 499, 492, 487, 503, 494, 494, 494, 495, 496, 498, 494, 489, 496, 492, 490, 496, 493, 494, 494, 493, 497, 493, 495, 491, 495, 496, 499, 492, 497, 489, 494, 500, 493, 493, 495, 494, 492, 494, 494, 487, 497, 496, 497, 494, 498, 488, 494, 496, 495, 494, 487, 498, 497, 490, 498, 499, 493, 499, 490, 496, 495, 484, 495, 494, 495, 498, 494, 495, 496, 494, 494, 497, 489, 495, 496, 494, 494, 486, 501, 493, 498, 494, 494, 491, 491, 498, 494, 490, 494, 494, 492, 494, 493, 489, 500, 495, 494, 493, 494, 494, 496, 492, 499, 493, 487, 499, 494, 485, 495, 497, 491, 497, 490, 498, 495, 494, 494, 493, 494, 484, 494, 497, 493, 495, 487, 496, 501, 497, 493, 496, 492, 488, 494, 496, 493, 498, 490, 489, 498, 493, 497, 484, 497, 495, 490, 495, 495, 490, 491, 494, 496, 493, 496, 493, 493, 497, 497, 494, 491, 496, 497, 494, 489, 484, 498, 484, 504, 495, 491, 495, 496, 493, 494, 498, 495, 495, 494, 495, 488, 497, 499, 499, 495, 494, 493, 479, 507, 494, 496, 498, 497, 492, 489, 500, 495, 492, 495, 475, 510, 492, 488, 499, 483, 498]"
rest,"[495, 488, 495, 500, 498, 494, 493, 495, 496, 492, 495, 490, 493, 495, 492, 493, 487, 495, 500, 494, 493, 499, 491, 503, 485, 494, 494, 495, 489, 495, 492, 494, 495, 496, 494, 486, 494, 494, 495, 494, 494, 491, 500, 501, 494, 499, 497, 489, 484, 490, 496, 492, 493, 487, 499, 494, 484, 499, 493, 483, 493, 498, 500, 502, 496, 480, 494, 495, 493, 498, 486, 503, 499, 492, 498, 491, 488, 489, 491, 497, 493, 500, 493, 491, 489, 494, 491, 496, 493, 480, 491, 499, 495, 497, 494, 492, 495, 497, 488, 502, 495, 495, 494, 494, 495, 494, 495, 495, 494, 495, 495, 494, 494, 494, 495, 495, 495, 495, 495, 495, 494, 494, 494, 494, 494, 495, 494, 495, 495, 494, 494, 494, 494, 494, 494, 494, 494, 494, 494, 494, 493, 493, 494, 493, 493, 493, 493, 493, 493, 493, 493, 493, 493, 493, 493, 493, 493, 493, 493, 493, 493, 493, 493, 492, 493, 493, 493, 493, 493, 492, 493, 493, 493, 493, 493, 493, 493, 492, 493, 493, 493, 493, 493, 492, 493, 493, 492, 493, 493, 493, 493, 493, 493, 493, 493, 492, 493, 493, 493, 492, 492, 493, 493, 493, 493, 493, 493, 493, 493, 493, 493, 492, 493, 493, 493, 493, 493, 493, 493, 493, 493, 493, 494, 493, 494, 493, 494, 493, 494, 494, 493, 494, 494, 494, 493, 494, 493, 493, 494, 494, 494, 494, 494, 494, 493, 494, 494, 494, 494, 493, 494, 494, 494, 494, 494, 494, 494, 493, 493, 494, 494, 493, 494, 494, 494, 493, 494, 494, 494, 494, 494, 494, 494, 494, 494, 494, 494, 494, 493, 494, 494, 494, 493, 494, 494, 494, 494, 494, 494, 494, 494, 494, 494, 494, 494, 494, 494, 494, 494, 494, 494, 494, 493, 494, 494, 494, 494, 494, 494, 494, 494, 494, 494, 494, 494, 494, 494, 494, 494, 494, 494, 494, 494, 494, 494, 494, 494, 494, 494, 494, 494, 494, 494, 494, 494, 494, 494, 494, 494, 494, 494, 494, 494, 494, 494, 494, 494, 494, 494, 494, 494, 494, 494, 494, 494, 494, 494, 494, 494, 494, 494, 494, 494, 494, 494, 494, 494, 495, 494, 494, 494, 494, 494, 494, 494, 494, 494, 494, 494, 494, 494, 495, 494, 494, 494, 494, 495, 494, 494, 494, 494, 494, 494, 494, 494, 494, 494, 494, 494, 494, 494, 494, 495, 494, 494, 494, 494, 495, 494, 494, 494, 494, 494, 494, 494, 495, 495, 494, 494, 494, 494, 494, 494, 494, 494, 494, 494, 494, 494, 494, 494, 495, 494, 494, 494, 494, 494, 494, 494, 494, 494, 494, 494, 495, 495, 495, 495, 495, 495, 494, 495, 495, 495, 495, 494, 494, 495, 494, 494, 495, 495, 495, 495, 495, 494, 495, 495, 495, 495, 495, 495, 495, 495, 494, 495, 495, 495, 495, 495, 495, 494, 495, 495, 495, 495, 495, 495, 494, 495, 494, 494, 495, 495, 495, 495, 495, 494, 495, 495, 494, 495, 494, 495, 494, 495, 495, 495, 495, 495, 495, 495, 495, 494, 494, 494, 495, 494, 495, 495, 495, 494, 495, 495, 495, 495, 495, 495, 495, 495, 495, 495, 495, 495, 494, 495, 494, 495, 495, 494, 495, 495, 495, 494, 495, 495, 494, 495, 495, 495, 495, 495, 495, 495, 495, 495, 495, 495, 495, 495, 495, 495, 495, 495, 495, 495, 495, 495, 495, 494, 495, 495, 494, 495, 495, 495, 495, 494]"
right,"[494, 495, 494, 495, 495, 495, 495, 494, 495, 495, 495, 495, 494, 495, 495, 495, 495, 495, 494, 495, 495, 495, 494, 495, 495, 495, 495, 494, 495, 495, 495, 494, 495, 495, 495, 495, 495, 495, 495, 495, 494, 494, 495, 494, 495, 495, 495, 494, 495, 494, 494, 495, 495, 495, 495, 495, 494, 494, 495, 495, 494, 495, 494, 494, 495, 494, 494, 494, 494, 495, 495, 494, 494, 495, 495, 495, 494, 495, 495, 494, 494, 495, 494, 494, 495, 495, 495, 495, 495, 495, 494, 495, 494, 494, 495, 494, 495, 495, 495, 495, 494, 495, 495, 495, 495, 494, 495, 494, 494, 494, 495, 494, 487, 496, 496, 485, 490, 506, 486, 489, 499, 498, 494, 496, 498, 490, 496, 495, 496, 494, 493, 493, 480, 495, 493, 497, 502, 496, 495, 496, 496, 498, 495, 489, 489, 501, 486, 504, 503, 498, 494, 502, 498, 493, 486, 505, 496, 494, 494, 485, 514, 494, 481, 502, 494, 502, 489, 491, 500, 504, 498, 500, 490, 495, 500, 493, 494, 513, 499, 492, 490, 512, 496, 489, 504, 491, 493, 496, 499, 496, 498, 498, 495, 488, 500, 497, 498, 500, 501, 492, 495, 500, 495, 496, 495, 501, 498, 496, 495, 492, 491, 510, 493, 496, 501, 495, 494, 494, 495, 497, 494, 492, 494, 497, 501, 485, 494, 511, 492, 503, 494, 495, 494, 501, 495, 496, 493, 490, 496, 495, 499, 494, 495, 494, 498, 494, 493, 497, 497, 495, 481, 500, 500, 490, 505, 492, 498, 490, 495, 496, 496, 487, 504, 495, 492, 494, 500, 498, 495, 498, 503, 495, 494, 495, 494, 495, 482, 498, 494, 488, 496, 494, 497, 495, 495, 494, 494, 496, 496, 489, 505, 496, 491, 495, 493, 494, 495, 494, 491, 496, 488, 500, 498, 497, 492, 495, 496, 490, 497, 496, 495, 497, 487, 494, 498, 497, 491, 498, 496, 498, 491, 494, 494, 493, 494, 495, 492, 497, 495, 482, 495, 497, 493, 497, 500, 493, 494, 494, 495, 494, 491, 496, 496, 491, 494, 489, 501, 495, 492, 493, 497, 492, 495, 495, 494, 492, 494, 495, 498, 494, 495, 495, 490, 496, 496, 493, 494, 499, 490, 494, 494, 494, 494, 498, 494, 494, 494, 494, 490, 495, 497, 493, 492, 493, 494, 494, 495, 492, 489, 492, 498, 494, 494, 495, 491, 497, 490, 494, 494, 494, 483, 496, 500, 494, 494, 498, 494, 493, 494, 489, 503, 493, 493, 496, 495, 489, 496, 495, 494, 493, 496, 487, 497, 490, 493, 496, 492, 492, 491, 498, 494, 494, 493, 491, 497, 494, 494, 494, 493, 491, 497, 492, 493, 495, 495, 490, 497, 495, 494, 496, 494, 494, 491, 499, 494, 495, 494, 495, 492, 499, 495, 491, 496, 494, 493, 494, 495, 494, 495, 494, 494, 494, 493, 494, 494, 492, 494, 498, 494, 493, 497, 495, 498, 494, 494, 491, 496, 488, 498, 491, 498, 484, 502, 494, 492, 496, 481, 499, 497, 497, 494, 496, 494, 492, 498, 494, 491, 491, 489, 499, 490, 497, 494, 495, 492, 492, 496, 493, 495, 495, 492, 498, 493, 494, 495, 493, 493, 495, 494, 494, 494, 494, 494, 496, 496, 494, 493, 496, 494, 493, 493, 495, 496, 495, 494, 491, 496, 495, 496, 493, 494, 489, 497, 494, 493, 496, 493, 494, 495, 494, 493, 494, 494, 493, 495, 492, 493, 499, 494, 493, 494, 496, 493, 494, 494, 493, 490]"
rest,"[498, 484, 496, 495, 494, 494, 495, 494, 495, 494, 495, 495, 494, 494, 494, 493, 494, 494, 488, 496, 496, 494, 494, 497, 494, 494, 495, 494, 494, 488, 497, 485, 497, 496, 495, 494, 493, 494, 494, 495, 494, 494, 496, 494, 488, 491, 499, 495, 493, 492, 496, 494, 494, 494, 494, 495, 494, 494, 494, 492, 489, 494, 490, 498, 494, 494, 493, 495, 494, 495, 494, 495, 494, 495, 494, 493, 494, 494, 487, 490, 498, 495, 495, 494, 495, 495, 495, 495, 494, 489, 497, 486, 500, 475, 495, 496, 504, 493, 495, 497, 492, 495, 494, 495, 494, 494, 495, 494, 495, 494, 494, 494, 494, 494, 495, 494, 495, 495, 495, 495, 494, 495, 494, 494, 494, 494, 495, 495, 494, 494, 495, 494, 494, 494, 494, 494, 493, 494, 494, 494, 494, 493, 494, 494, 493, 494, 494, 493, 493, 494, 493, 494, 493, 494, 493, 493, 494, 493, 493, 494, 493, 493, 493, 493, 493, 494, 493, 494, 493, 493, 494, 493, 494, 493, 493, 494, 493, 493, 493, 493, 494, 493, 493, 493, 493, 494, 494, 494, 494, 493, 494, 494, 493, 494, 494, 494, 494, 494, 494, 494, 494, 494, 493, 493, 494, 494, 494, 494, 494, 493, 494, 493, 493, 493, 494, 494, 493, 494, 493, 494, 494, 494, 494, 494, 494, 494, 494, 494, 494, 493, 494, 494, 494, 494, 494, 494, 494, 494, 494, 494, 494, 494, 494, 493, 494, 494, 494, 494, 494, 494, 494, 494, 493, 494, 494, 494, 494, 494, 494, 494, 494, 494, 494, 494, 494, 494, 493, 494, 494, 494, 494, 494, 494, 494, 494, 494, 494, 494, 494, 494, 494, 494, 494, 494, 494, 493, 495, 494, 493, 494, 494, 494, 494, 494, 494, 494, 494, 494, 494, 494, 494, 494, 494, 494, 494, 494, 494, 494, 494, 494, 494, 494, 494, 494, 494, 494, 494, 494, 495, 494, 494, 494, 494, 494, 494, 494, 494, 495, 494, 494, 494, 494, 494, 494, 495, 494, 494, 495, 494, 494, 494, 494, 494, 494, 494, 494, 494, 494, 494, 494, 494, 494, 494, 494, 494, 494, 494, 494, 494, 494, 494, 495, 494, 494, 494, 495, 495, 494, 494, 494, 495, 494, 495, 494, 495, 495, 495, 494, 495, 495, 494, 494, 495, 495, 494, 494, 494, 495, 495, 495, 494, 494, 494, 495, 495, 495, 495, 494, 495, 494, 494, 495, 494, 495, 494, 495, 495, 495, 495, 495, 494, 495, 494, 495, 494, 495, 495, 495, 495, 494, 495, 495, 495, 494, 495, 495, 494, 495, 495, 495, 494, 495, 494, 494, 495, 494, 495, 494, 495, 494, 495, 495, 494, 495, 494, 494, 495, 495, 494, 495, 495, 495, 494, 495, 495, 494, 495, 494, 494, 495, 494, 494, 494, 494, 495, 494, 495, 495, 494, 494, 495, 494, 495, 494, 494, 495, 495, 494, 495, 494, 495, 495, 494, 494, 494, 494, 494, 495, 494, 495, 495, 495, 494, 495, 495, 495, 495, 495, 494, 495, 495, 495, 495, 495, 495, 495, 495, 495, 495, 495, 495, 495, 495, 495, 494, 495, 495, 495, 495, 494, 494, 495, 495, 495, 495, 495, 495, 495, 494, 495, 495, 494, 495, 495, 495, 494, 494, 495, 495, 494, 495, 495, 494, 495, 495, 494, 495, 495, 495, 495, 495, 494, 495, 495, 494, 495, 495, 495, 495, 495, 494, 495, 494, 495, 495, 495, 495, 495, 495, 494, 494, 495, 495, 494, 494, 495]"
right,"[495, 495, 495, 494, 494, 495, 494, 495, 494, 495, 495, 494, 494, 495, 495, 495, 495, 495, 495, 495, 495, 495, 495, 495, 495, 495, 494, 495, 495, 495, 495, 495, 495, 495, 494, 494, 495, 495, 495, 495, 495, 495, 494, 494, 495, 494, 495, 495, 494, 495, 494, 494, 494, 495, 495, 494, 495, 495, 495, 495, 495, 494, 495, 494, 495, 495, 495, 495, 494, 495, 494, 495, 495, 494, 494, 495, 495, 495, 495, 494, 494, 495, 494, 494, 495, 494, 495, 495, 495, 495, 495, 494, 495, 495, 495, 494, 495, 495, 494, 495, 495, 495, 495, 494, 495, 495, 494, 495, 495, 495, 494, 495, 492, 495, 490, 495, 493, 498, 485, 487, 494, 496, 500, 494, 504, 494, 486, 494, 501, 481, 479, 497, 497, 505, 493, 494, 480, 504, 490, 511, 490, 485, 500, 487, 511, 490, 492, 496, 501, 489, 506, 490, 502, 497, 496, 494, 499, 497, 499, 494, 493, 494, 495, 504, 484, 504, 486, 506, 500, 494, 510, 494, 499, 494, 492, 508, 499, 501, 503, 492, 493, 511, 489, 496, 496, 494, 497, 486, 501, 495, 507, 491, 493, 500, 497, 502, 498, 495, 492, 503, 499, 503, 497, 486, 497, 490, 498, 502, 496, 487, 500, 504, 498, 495, 495, 499, 501, 496, 494, 495, 490, 496, 497, 495, 500, 498, 495, 498, 490, 501, 496, 490, 494, 499, 494, 497, 490, 504, 498, 491, 487, 502, 496, 487, 507, 494, 501, 495, 496, 495, 499, 490, 495, 493, 482, 505, 489, 492, 506, 495, 497, 494, 502, 494, 494, 496, 497, 496, 496, 492, 494, 497, 489, 493, 496, 499, 497, 497, 494, 496, 493, 503, 495, 498, 494, 495, 491, 496, 497, 497, 492, 496, 496, 495, 496, 488, 494, 493, 495, 496, 497, 495, 492, 494, 494, 495, 492, 497, 495, 491, 495, 496, 494, 488, 501, 491, 501, 496, 494, 493, 497, 490, 497, 496, 485, 499, 494, 494, 492, 504, 493, 496, 494, 494, 486, 497, 494, 494, 494, 493, 496, 496, 492, 496, 492, 492, 493, 496, 497, 495, 494, 488, 496, 494, 493, 495, 496, 496, 493, 494, 496, 492, 490, 498, 486, 494, 494, 493, 501, 494, 492, 493, 495, 488, 503, 495, 493, 495, 489, 494, 494, 495, 493, 495, 493, 492, 496, 486, 498, 495, 498, 494, 494, 494, 493, 494, 499, 494, 494, 490, 498, 494, 483, 494, 494, 495, 493, 494, 493, 497, 492, 494, 490, 494, 496, 493, 490, 491, 499, 496, 494, 492, 494, 493, 497, 494, 495, 493, 489, 494, 495, 495, 496, 495, 494, 498, 490, 495, 496, 494, 487, 499, 497, 494, 494, 492, 496, 492, 495, 494, 492, 494, 493, 482, 496, 496, 487, 496, 495, 496, 492, 494, 498, 498, 493, 495, 489, 499, 494, 496, 492, 495, 494, 495, 495, 494, 494, 494, 495, 493, 491, 499, 497, 494, 493, 494, 499, 493, 494, 493, 495, 484, 503, 494, 494, 493, 491, 496, 496, 493, 495, 492, 496, 496, 495, 490, 502, 495, 494, 494, 496, 495, 495, 495, 494, 495, 491, 493, 494, 496, 495, 496, 494, 493, 496, 496, 495, 490, 499, 494, 494, 495, 492, 494, 487, 495, 497, 494, 493, 489, 499, 495, 493, 495, 490, 496, 498, 496, 495, 494, 495, 494, 496, 492, 491, 495, 497, 496, 497, 494, 499, 491, 493, 493, 494, 494, 497, 495, 495, 495, 492, 494, 495, 494, 495, 491]"
rest,"[495, 494, 495, 496, 493, 495, 496, 494, 491, 497, 490, 498, 495, 494, 495, 495, 493, 493, 492, 495, 493, 493, 492, 495, 497, 497, 494, 494, 494, 493, 494, 493, 495, 493, 497, 494, 496, 492, 492, 493, 494, 497, 494, 492, 496, 492, 497, 494, 497, 494, 494, 495, 494, 489, 495, 495, 495, 494, 495, 494, 494, 496, 494, 493, 494, 494, 497, 494, 494, 494, 491, 494, 492, 499, 491, 499, 499, 490, 498, 494, 494, 494, 494, 494, 491, 493, 490, 499, 492, 494, 494, 494, 488, 494, 494, 495, 495, 495, 495, 494, 494, 494, 494, 494, 494, 494, 494, 494, 494, 494, 494, 494, 494, 494, 494, 495, 494, 495, 494, 494, 495, 495, 494, 494, 494, 494, 494, 494, 494, 494, 494, 494, 494, 494, 493, 493, 494, 493, 493, 493, 493, 493, 493, 492, 493, 493, 493, 493, 493, 493, 493, 493, 492, 493, 493, 493, 493, 493, 493, 493, 493, 493, 493, 493, 493, 493, 493, 493, 493, 493, 493, 493, 493, 493, 493, 493, 493, 493, 493, 493, 493, 493, 493, 493, 493, 492, 493, 493, 493, 493, 493, 493, 493, 493, 493, 493, 493, 493, 493, 493, 493, 493, 493, 493, 493, 493, 493, 493, 492, 493, 493, 493, 493, 493, 493, 493, 493, 493, 493, 493, 493, 493, 493, 493, 493, 493, 493, 493, 493, 493, 493, 494, 493, 494, 493, 494, 494, 494, 493, 494, 493, 493, 493, 493, 494, 493, 493, 494, 494, 493, 494, 493, 494, 493, 494, 494, 493, 494, 494, 494, 493, 494, 494, 493, 493, 494, 494, 494, 494, 494, 494, 494, 494, 494, 494, 494, 494, 494, 494, 493, 494, 493, 494, 493, 494, 494, 494, 494, 494, 494, 494, 494, 494, 494, 494, 494, 494, 494, 495, 494, 494, 494, 494, 494, 494, 494, 494, 494, 494, 494, 494, 494, 494, 494, 494, 494, 494, 494, 494, 494, 494, 494, 494, 494, 494, 494, 494, 494, 494, 494, 494, 494, 494, 494, 494, 494, 494, 494, 494, 494, 494, 494, 494, 494, 494, 495, 494, 494, 494, 494, 494, 494, 494, 494, 494, 494, 494, 494, 494, 494, 494, 494, 494, 494, 494, 494, 494, 494, 494, 495, 494, 494, 494, 494, 494, 494, 494, 495, 494, 494, 494, 494, 494, 494, 494, 495, 494, 494, 494, 494, 494, 495, 494, 494, 494, 494, 495, 494, 494, 494, 494, 494, 494, 494, 494, 494, 494, 494, 494, 495, 494, 494, 494, 494, 494, 494, 494, 495, 494, 494, 494, 494, 495, 494, 494, 494, 494, 494, 495, 494, 494, 495, 495, 494, 494, 494, 494, 494, 494, 494, 494, 495, 494, 494, 495, 495, 495, 494, 494, 494, 494, 495, 495, 494, 494, 494, 494, 494, 494, 495, 495, 495, 494, 494, 494, 495, 495, 495, 495, 494, 495, 494, 495, 495, 494, 495, 494, 494, 495, 495, 495, 495, 494, 495, 494, 495, 495, 494, 495, 495, 494, 494, 495, 494, 495, 494, 494, 495, 495, 494, 495, 494, 494, 494, 495, 495, 494, 495, 495, 495, 495, 495, 495, 494, 495, 494, 495, 495, 495, 495, 495, 494, 494, 494, 494, 495, 495, 494, 494, 495, 494, 495, 495, 495, 495, 494, 495, 495, 494, 494, 495, 495, 495, 495, 495, 495, 495, 495, 495, 495, 495, 495, 495, 495, 495, 495, 495, 495, 495, 495, 495, 495, 495, 495, 495, 495, 495, 494, 495, 495, 495, 495, 495, 495, 495, 495, 495]"
right,"[495, 495, 495, 495, 495, 495, 495, 495, 495, 495, 495, 495, 495, 495, 496, 495, 495, 495, 495, 496, 495, 495, 495, 495, 495, 495, 496, 495, 496, 495, 495, 495, 495, 495, 495, 495, 495, 495, 495, 495, 495, 495, 495, 495, 495, 495, 495, 495, 495, 495, 495, 495, 495, 495, 495, 495, 495, 495, 495, 495, 495, 495, 495, 495, 495, 495, 495, 495, 495, 495, 495, 495, 495, 495, 495, 495, 495, 495, 494, 495, 495, 495, 496, 495, 495, 495, 495, 495, 495, 495, 495, 495, 495, 495, 495, 495, 494, 495, 495, 495, 495, 493, 495, 496, 495, 493, 496, 494, 496, 495, 492, 497, 497, 496, 495, 492, 491, 497, 499, 495, 491, 495, 495, 499, 498, 493, 502, 493, 498, 494, 487, 492, 504, 499, 488, 492, 501, 496, 493, 495, 498, 494, 495, 493, 504, 495, 494, 502, 490, 502, 496, 492, 493, 496, 497, 497, 495, 497, 493, 500, 498, 496, 496, 500, 496, 497, 490, 507, 500, 489, 500, 494, 498, 494, 500, 496, 491, 497, 493, 499, 498, 488, 504, 503, 498, 496, 495, 495, 497, 496, 496, 493, 491, 502, 495, 500, 495, 500, 493, 496, 495, 496, 500, 488, 501, 499, 493, 499, 492, 500, 496, 497, 491, 500, 494, 498, 498, 484, 494, 504, 499, 499, 495, 497, 496, 493, 494, 489, 503, 494, 489, 493, 492, 505, 497, 494, 491, 504, 495, 500, 489, 507, 496, 493, 496, 493, 496, 491, 499, 497, 496, 497, 486, 503, 490, 493, 493, 492, 495, 494, 495, 497, 499, 494, 487, 505, 496, 494, 495, 494, 492, 498, 491, 495, 493, 496, 499, 486, 499, 504, 494, 491, 494, 496, 487, 494, 502, 488, 503, 495, 490, 502, 495, 495, 495, 495, 497, 496, 497, 489, 502, 496, 499, 495, 495, 500, 488, 498, 497, 498, 495, 494, 496, 494, 497, 494, 490, 495, 498, 495, 495, 489, 500, 497, 491, 499, 494, 495, 494, 496, 493, 505, 495, 497, 491, 484, 504, 492, 506, 496, 496, 495, 497, 497, 495, 491, 489, 504, 496, 494, 491, 496, 495, 494, 499, 492, 496, 486, 496, 497, 493, 491, 495, 491, 494, 497, 497, 489, 498, 495, 494, 495, 492, 491, 496, 492, 491, 487, 500, 496, 491, 494, 495, 495, 485, 495, 495, 496, 494, 495, 496, 494, 489, 495, 500, 494, 498, 495, 495, 492, 494, 496, 495, 494, 489, 483, 500, 497, 498, 491, 500, 493, 496, 496, 494, 492, 486, 503, 497, 492, 495, 494, 494, 499, 488, 484, 502, 492, 483, 500, 495, 496, 490, 496, 496, 496, 486, 496, 495, 492, 493, 488, 498, 490, 496, 492, 489, 496, 496, 498, 498, 494, 494, 495, 494, 494, 493, 492, 495, 495, 496, 487, 495, 496, 496, 493, 500, 493, 496, 496, 494, 494, 492, 499, 494, 498, 495, 489, 498, 490, 494, 495, 494, 495, 495, 497, 494, 489, 497, 494, 504, 494, 496, 495, 494, 494, 493, 494, 485, 498, 501, 494, 495, 494, 496, 494, 495, 493, 491, 499, 494, 494, 491, 499, 494, 495, 494, 495, 497, 492, 497, 490, 494, 497, 494, 492, 496, 496, 495, 491, 495, 498, 494, 495, 495, 494, 496, 494, 489, 491, 494, 494, 496, 490, 490, 492, 497, 495, 495, 492, 496, 495, 494, 494, 491, 494, 493, 497, 494, 492, 493, 499, 491, 495, 494, 491, 496, 498, 496, 491, 494, 492, 492, 494, 493, 487]"
rest,"[496, 494, 494, 488, 497, 496, 494, 494, 493, 495, 496, 486, 497, 494, 493, 494, 491, 490, 493, 498, 490, 495, 496, 492, 495, 489, 494, 494, 492, 497, 494, 490, 497, 494, 494, 494, 495, 494, 491, 494, 496, 497, 490, 497, 500, 494, 488, 492, 491, 499, 494, 497, 494, 492, 496, 492, 494, 494, 493, 495, 494, 494, 495, 493, 494, 492, 492, 486, 503, 497, 495, 486, 501, 495, 493, 494, 496, 493, 494, 493, 495, 490, 498, 494, 494, 493, 494, 493, 494, 491, 498, 499, 496, 494, 492, 496, 494, 495, 488, 498, 496, 494, 492, 494, 493, 493, 494, 494, 495, 495, 494, 494, 494, 494, 494, 495, 494, 495, 495, 495, 494, 494, 494, 495, 494, 494, 494, 494, 494, 494, 494, 494, 494, 494, 494, 494, 494, 494, 494, 494, 493, 494, 494, 493, 493, 493, 492, 493, 493, 493, 493, 493, 493, 493, 493, 493, 493, 493, 493, 493, 493, 493, 493, 493, 493, 493, 493, 493, 493, 493, 493, 493, 493, 493, 493, 493, 493, 493, 493, 493, 493, 493, 493, 493, 493, 493, 493, 493, 493, 493, 493, 493, 493, 493, 492, 493, 494, 493, 493, 494, 493, 493, 493, 493, 493, 493, 493, 493, 493, 493, 494, 493, 494, 493, 493, 493, 493, 493, 493, 493, 494, 493, 493, 493, 493, 494, 494, 494, 494, 493, 494, 494, 494, 494, 494, 494, 494, 493, 494, 493, 494, 494, 494, 493, 494, 494, 494, 494, 494, 494, 494, 494, 494, 494, 494, 493, 494, 494, 494, 494, 494, 494, 494, 495, 494, 494, 494, 494, 494, 494, 494, 494, 494, 494, 494, 494, 494, 494, 494, 494, 494, 495, 494, 494, 494, 494, 494, 494, 494, 494, 494, 494, 494, 494, 494, 494, 494, 494, 494, 494, 494, 494, 494, 494, 494, 494, 494, 494, 494, 494, 495, 494, 494, 494, 494, 494, 494, 494, 494, 494, 494, 494, 494, 495, 494, 494, 494, 494, 494, 495, 494, 494, 494, 494, 494, 494, 494, 494, 495, 494, 494, 494, 494, 494, 494, 494, 494, 494, 495, 494, 494, 494, 494, 494, 494, 494, 494, 494, 494, 494, 494, 494, 494, 494, 494, 494, 494, 494, 494, 495, 494, 495, 494, 494, 495, 494, 494, 494, 494, 494, 494, 494, 494, 494, 494, 494, 494, 495, 494, 494, 494, 494, 494, 494, 494, 494, 495, 494, 494, 494, 494, 494, 494, 494, 494, 495, 494, 494, 494, 495, 494, 494, 495, 494, 494, 494, 494, 494, 494, 495, 494, 494, 495, 494, 494, 494, 494, 494, 494, 494, 494, 494, 494, 494, 494, 495, 494, 494, 494, 494, 494, 495, 494, 494, 495, 494, 494, 494, 494, 494, 494, 494, 494, 494, 495, 494, 494, 494, 494, 494, 494, 494, 494, 495, 495, 495, 494, 494, 494, 494, 495, 494, 495, 495, 495, 495, 495, 494, 495, 495, 494, 495, 495, 495, 494, 494, 495, 495, 495, 495, 495, 495, 495, 495, 495, 495, 495, 495, 495, 496, 495, 495, 495, 495, 495, 495, 494, 495, 495, 495, 495, 495, 495, 495, 495, 495, 495, 495, 495, 495, 495, 495, 495, 495, 495, 495, 495, 495, 495, 495, 495, 495, 495, 495, 495, 495, 495, 495, 495, 495, 495, 495, 495, 495, 495, 495, 495, 495, 495, 495, 495, 494, 495, 494, 495, 495, 495, 494, 495, 495, 495, 494, 495, 495, 494, 495, 495, 495, 495, 495, 495, 495, 494, 495, 495, 495]"
right,"[494, 495, 495, 495, 495, 494, 495, 495, 495, 495, 495, 495, 495, 495, 494, 495, 495, 495, 495, 494, 495, 495, 495, 495, 495, 494, 495, 494, 495, 495, 494, 495, 495, 495, 495, 495, 495, 495, 495, 495, 495, 496, 495, 495, 495, 495, 495, 495, 495, 495, 495, 495, 495, 495, 495, 495, 495, 495, 495, 495, 495, 495, 495, 495, 495, 495, 495, 495, 495, 495, 496, 495, 495, 495, 495, 496, 495, 495, 495, 495, 496, 495, 495, 495, 495, 495, 495, 495, 495, 495, 495, 495, 495, 495, 495, 495, 495, 495, 495, 495, 495, 495, 495, 495, 495, 495, 495, 495, 495, 495, 494, 495, 495, 495, 495, 495, 495, 494, 495, 495, 493, 495, 496, 492, 494, 493, 494, 493, 500, 497, 495, 490, 496, 490, 498, 495, 495, 496, 497, 500, 491, 494, 491, 500, 493, 498, 496, 494, 492, 496, 496, 496, 501, 493, 491, 495, 501, 495, 496, 496, 488, 502, 502, 493, 505, 498, 495, 502, 495, 497, 484, 501, 487, 505, 484, 501, 504, 500, 492, 496, 498, 494, 504, 491, 504, 495, 502, 493, 495, 494, 489, 497, 494, 501, 499, 492, 504, 496, 489, 492, 501, 496, 499, 498, 494, 500, 496, 495, 496, 504, 493, 493, 499, 497, 493, 497, 498, 494, 502, 494, 497, 495, 493, 503, 497, 499, 475, 487, 507, 499, 494, 505, 495, 493, 483, 500, 497, 494, 498, 491, 500, 496, 494, 499, 496, 489, 503, 499, 497, 486, 496, 492, 497, 497, 496, 490, 497, 495, 499, 495, 501, 494, 493, 504, 485, 500, 494, 489, 488, 498, 496, 510, 497, 499, 489, 499, 500, 495, 493, 495, 495, 492, 497, 497, 493, 503, 495, 488, 498, 495, 498, 501, 498, 498, 494, 494, 497, 484, 498, 505, 491, 499, 494, 498, 502, 496, 495, 498, 494, 489, 492, 495, 496, 490, 498, 494, 495, 478, 511, 489, 504, 498, 493, 498, 494, 495, 497, 487, 491, 505, 494, 495, 492, 495, 493, 497, 499, 482, 503, 494, 503, 496, 489, 496, 479, 500, 494, 492, 494, 499, 498, 494, 494, 503, 489, 492, 501, 499, 497, 495, 495, 495, 477, 504, 502, 486, 493, 499, 497, 494, 496, 494, 494, 494, 490, 498, 489, 493, 492, 500, 495, 497, 485, 496, 491, 495, 491, 492, 498, 496, 488, 490, 502, 493, 500, 493, 491, 491, 494, 494, 494, 477, 504, 494, 494, 497, 481, 500, 494, 496, 494, 491, 486, 498, 490, 491, 494, 492, 490, 502, 498, 495, 495, 497, 494, 495, 494, 494, 495, 489, 497, 500, 489, 502, 494, 493, 495, 494, 490, 501, 493, 502, 492, 491, 497, 497, 495, 498, 494, 492, 491, 502, 495, 496, 491, 495, 488, 496, 496, 494, 493, 497, 495, 495, 495, 489, 497, 495, 493, 494, 494, 498, 488, 495, 506, 497, 491, 498, 489, 499, 497, 495, 495, 486, 495, 496, 495, 493, 490, 487, 494, 494, 495, 495, 495, 487, 498, 494, 492, 495, 489, 498, 500, 491, 500, 495, 488, 497, 493, 487, 496, 496, 496, 498, 487, 500, 490, 494, 494, 494, 499, 494, 498, 491, 499, 494, 495, 491, 491, 484, 496, 496, 494, 493, 496, 492, 499, 496, 489, 494, 491, 495, 494, 495, 493, 487, 494, 499, 493, 496, 487, 504, 498, 491, 501, 488, 484, 496, 500, 495, 495, 493, 493, 494, 488, 491, 495, 499, 495, 492, 487, 491, 500, 497, 494, 489, 493]"
rest,"[500, 490, 495, 495, 496, 487, 501, 495, 494, 495, 497, 493, 488, 487, 492, 502, 497, 493, 493, 491, 494, 498, 497, 495, 492, 483, 496, 492, 497, 494, 494, 490, 494, 494, 496, 487, 492, 503, 499, 498, 493, 486, 491, 499, 500, 497, 493, 486, 495, 496, 494, 498, 492, 494, 496, 496, 488, 494, 499, 489, 495, 490, 501, 497, 494, 497, 493, 495, 491, 496, 494, 494, 492, 477, 494, 507, 494, 494, 489, 485, 493, 496, 497, 497, 494, 496, 494, 495, 494, 494, 495, 494, 494, 495, 494, 493, 479, 505, 494, 511, 498, 497, 494, 495, 495, 495, 494, 494, 495, 494, 495, 495, 495, 495, 495, 495, 494, 495, 495, 494, 494, 495, 495, 495, 495, 494, 494, 494, 494, 494, 495, 494, 494, 495, 493, 494, 494, 494, 493, 493, 493, 493, 493, 493, 493, 493, 493, 493, 493, 492, 492, 492, 492, 492, 492, 492, 492, 491, 491, 491, 491, 491, 491, 491, 491, 491, 491, 491, 491, 492, 491, 491, 492, 491, 492, 491, 492, 492, 492, 492, 492, 492, 493, 493, 492, 492, 493, 493, 492, 493, 493, 493, 493, 493, 493, 493, 493, 493, 493, 493, 493, 493, 493, 493, 494, 493, 494, 493, 494, 493, 493, 494, 493, 493, 493, 493, 493, 494, 493, 493, 493, 493, 493, 493, 493, 493, 493, 493, 493, 493, 493, 493, 493, 493, 493, 493, 493, 493, 493, 493, 493, 493, 493, 493, 493, 493, 493, 493, 493, 493, 493, 493, 493, 493, 493, 493, 493, 494, 493, 494, 494, 493, 493, 494, 493, 494, 494, 493, 493, 494, 494, 494, 494, 494, 494, 494, 494, 494, 494, 494, 493, 494, 494, 494, 494, 494, 494, 494, 494, 494, 494, 494, 494, 494, 494, 493, 493, 493, 493, 494, 494, 494, 494, 494, 494, 493, 493, 494, 494, 494, 494, 494, 494, 494, 494, 494, 493, 494, 493, 493, 494, 494, 494, 494, 494, 494, 494, 494, 494, 494, 494, 494, 494, 494, 494, 494, 494, 494, 494, 494, 494, 494, 494, 494, 494, 494, 494, 494, 494, 494, 494, 494, 494, 494, 494, 495, 495, 494, 494, 495, 495, 494, 495, 494, 495, 495, 495, 495, 495, 494, 495, 495, 495, 495, 495, 495, 495, 496, 495, 495, 495, 495, 495, 495, 495, 495, 495, 495, 495, 495, 494, 495, 495, 496, 495, 495, 495, 495, 496, 495, 495, 495, 495, 495, 495, 495, 495, 495, 496, 495, 495, 495, 495, 495, 495, 495, 495, 495, 495, 495, 495, 495, 495, 495, 495, 495, 495, 495, 495, 496, 495, 495, 495, 495, 495, 495, 495, 495, 495, 495, 495, 495, 496, 495, 495, 495, 495, 495, 496, 495, 495, 495, 495, 495, 495, 495, 495, 495, 496, 495, 495, 495, 495, 496, 496, 495, 495, 495, 496, 495, 496, 496, 496, 495, 496, 495, 495, 496, 495, 495, 496, 495, 496, 496, 495, 496, 495, 495, 496, 496, 495, 495, 496, 495, 496, 496, 495, 495, 496, 495, 496, 495, 495, 496, 496, 495, 496, 496, 496, 496, 496, 496, 496, 496, 496, 496, 495, 495, 496, 496, 496, 496, 496, 495, 495, 495, 496, 496, 496, 496, 495, 496, 495, 496, 495, 495, 496, 495, 496, 495, 495, 496, 496, 496, 495, 495, 495, 496, 496, 496, 495, 496, 495, 495, 495, 495, 495, 495, 495, 495, 495, 495, 495, 495, 496, 496, 495, 496, 495, 495, 495, 495, 495, 495, 495, 495, 495]"
right,"[495, 495, 495, 495, 495, 495, 495, 495, 495, 495, 495, 495, 495, 495, 496, 495, 495, 495, 495, 495, 495, 495, 495, 495, 495, 495, 495, 495, 495, 495, 495, 495, 495, 495, 495, 495, 495, 495, 495, 495, 495, 495, 495, 496, 496, 495, 496, 495, 495, 495, 495, 495, 495, 495, 495, 495, 495, 495, 495, 495, 495, 495, 495, 495, 495, 495, 495, 496, 496, 495, 495, 495, 495, 495, 495, 495, 495, 495, 495, 495, 495, 495, 495, 495, 495, 495, 495, 495, 495, 495, 495, 495, 495, 494, 495, 495, 495, 495, 494, 495, 495, 495, 495, 494, 495, 495, 495, 495, 495, 494, 495, 492, 495, 495, 495, 496, 495, 494, 494, 494, 496, 495, 495, 495, 495, 491, 492, 489, 493, 499, 498, 488, 493, 498, 498, 497, 494, 495, 500, 496, 495, 488, 492, 497, 491, 496, 494, 496, 489, 500, 499, 491, 487, 494, 493, 499, 505, 506, 494, 494, 496, 492, 496, 501, 488, 499, 495, 493, 502, 501, 496, 470, 527, 491, 485, 487, 499, 500, 499, 492, 499, 479, 509, 482, 515, 497, 488, 505, 489, 509, 497, 506, 489, 507, 497, 477, 507, 504, 495, 493, 494, 498, 493, 501, 501, 504, 489, 511, 491, 511, 477, 513, 499, 497, 487, 483, 508, 490, 496, 484, 490, 500, 497, 494, 486, 499, 500, 498, 502, 485, 497, 502, 496, 499, 491, 489, 497, 493, 513, 504, 495, 488, 493, 496, 493, 501, 496, 503, 492, 496, 491, 475, 511, 497, 494, 507, 490, 495, 490, 501, 489, 502, 476, 502, 498, 495, 492, 494, 503, 494, 497, 488, 501, 500, 502, 493, 497, 503, 476, 501, 492, 496, 499, 498, 498, 488, 496, 498, 489, 502, 503, 495, 497, 502, 501, 497, 486, 498, 478, 497, 495, 483, 504, 508, 496, 492, 495, 492, 494, 501, 497, 491, 508, 498, 501, 494, 494, 484, 498, 492, 499, 494, 502, 499, 490, 496, 496, 500, 487, 496, 493, 494, 498, 493, 489, 489, 489, 499, 491, 494, 498, 501, 493, 496, 492, 489, 488, 506, 493, 499, 495, 496, 492, 500, 497, 488, 493, 487, 503, 499, 489, 501, 501, 496, 492, 488, 487, 498, 497, 492, 487, 498, 488, 497, 492, 493, 495, 494, 495, 495, 493, 493, 495, 504, 494, 491, 495, 496, 496, 494, 492, 489, 499, 493, 498, 493, 495, 493, 500, 494, 491, 494, 494, 498, 504, 494, 495, 487, 489, 509, 497, 492, 494, 502, 499, 495, 491, 497, 492, 482, 497, 494, 496, 488, 499, 493, 508, 499, 492, 497, 493, 487, 497, 491, 497, 484, 499, 495, 493, 496, 496, 492, 488, 497, 493, 487, 498, 493, 494, 495, 494, 493, 488, 492, 486, 498, 485, 484, 508, 470, 502, 496, 495, 495, 498, 494, 494, 495, 496, 488, 494, 498, 489, 482, 493, 502, 492, 502, 493, 496, 493, 490, 502, 488, 496, 493, 497, 500, 478, 492, 505, 494, 496, 490, 489, 500, 495, 492, 498, 489, 484, 492, 490, 504, 502, 493, 491, 493, 492, 498, 493, 486, 499, 490, 482, 503, 492, 494, 498, 496, 495, 494, 498, 479, 500, 490, 496, 494, 494, 497, 489, 487, 503, 500, 501, 479, 493, 495, 507, 493, 495, 491, 490, 494, 494, 493, 492, 493, 502, 499, 495, 495, 491, 498, 490, 497, 492, 499, 494, 494, 490, 499, 492, 491, 493, 501, 497, 495, 499, 494, 494, 491, 495, 496, 494, 488]"
rest,"[494, 493, 492, 500, 494, 481, 511, 494, 494, 494, 490, 493, 492, 496, 495, 493, 493, 484, 502, 498, 493, 495, 488, 484, 499, 497, 494, 498, 483, 489, 493, 498, 494, 491, 493, 502, 493, 499, 490, 488, 506, 495, 498, 494, 497, 489, 498, 497, 483, 506, 502, 496, 494, 495, 483, 448, 522, 496, 499, 482, 501, 508, 494, 494, 490, 487, 494, 495, 494, 494, 494, 494, 484, 503, 495, 497, 495, 493, 484, 499, 499, 482, 464, 511, 497, 495, 494, 493, 493, 497, 496, 495, 494, 495, 494, 490, 489, 509, 496, 495, 494, 494, 494, 495, 495, 495, 495, 494, 495, 495, 495, 495, 495, 495, 495, 495, 494, 495, 495, 495, 494, 495, 494, 495, 494, 494, 494, 495, 494, 494, 493, 494, 494, 494, 493, 493, 493, 493, 493, 492, 493, 493, 492, 492, 493, 492, 492, 492, 492, 492, 492, 493, 493, 493, 492, 493, 492, 492, 492, 492, 492, 492, 492, 493, 492, 492, 492, 492, 492, 492, 492, 492, 492, 492, 492, 492, 492, 493, 492, 492, 492, 492, 492, 492, 493, 492, 492, 492, 492, 492, 493, 493, 492, 492, 493, 492, 493, 493, 493, 493, 493, 493, 493, 493, 493, 493, 493, 493, 493, 493, 493, 493, 493, 494, 493, 493, 494, 493, 493, 494, 493, 493, 493, 493, 493, 494, 494, 494, 494, 494, 494, 493, 494, 494, 493, 494, 494, 494, 495, 494, 494, 494, 494, 494, 494, 495, 493, 494, 494, 494, 494, 495, 494, 494, 494, 494, 495, 494, 494, 494, 494, 494, 494, 494, 495, 494, 494, 495, 494, 494, 494, 494, 494, 494, 494, 494, 494, 495, 494, 494, 495, 494, 494, 494, 494, 494, 494, 494, 494, 494, 494, 494, 494, 495, 494, 494, 494, 494, 494, 494, 494, 494, 494, 494, 494, 494, 494, 494, 494, 494, 494, 494, 494, 494, 495, 494, 494, 494, 494, 494, 494, 495, 494, 494, 494, 495, 494, 494, 495, 495, 495, 495, 495, 495, 495, 494, 495, 494, 494, 495, 494, 494, 495, 495, 495, 494, 495, 494, 494, 495, 494, 495, 495, 495, 495, 494, 495, 495, 495, 495, 495, 495, 495, 495, 495, 495, 494, 495, 494, 495, 495, 495, 495, 495, 495, 495, 495, 495, 495, 495, 495, 495, 494, 495, 495, 495, 495, 495, 495, 495, 495, 495, 495, 495, 495, 495, 495, 495, 495, 495, 495, 495, 494, 495, 495, 495, 495, 495, 495, 495, 495, 495, 495, 495, 495, 495, 495, 495, 496, 495, 495, 495, 495, 495, 495, 495, 495, 495, 495, 495, 495, 495, 495, 496, 495, 495, 495, 495, 495, 495, 495, 495, 495, 495, 495, 495, 495, 495, 495, 495, 495, 495, 495, 495, 495, 495, 495, 495, 495, 495, 495, 495, 495, 495, 495, 495, 495, 495, 495, 495, 495, 495, 495, 495, 495, 494, 495, 495, 495, 495, 495, 495, 495, 495, 495, 495, 495, 495, 494, 495, 495, 495, 495, 495, 495, 495, 495, 495, 495, 495, 495, 495, 495, 495, 495, 495, 495, 495, 495, 495, 495, 495, 495, 495, 495, 494, 494, 495, 495, 495, 495, 495, 495, 495, 495, 495, 495, 495, 495, 495, 495, 495, 495, 495, 495, 495, 495, 495, 495, 494, 495, 495, 495, 495, 495, 495, 495, 495, 495, 495, 495, 495, 495, 495, 495, 495, 495, 495, 495, 495, 495, 495, 495, 495, 495, 496, 495, 495, 495, 495, 495, 495, 496, 495, 495, 495]"
right,"[495, 495, 495, 495, 495, 495, 495, 495, 495, 495, 495, 495, 495, 495, 495, 495, 495, 495, 495, 495, 495, 495, 495, 495, 494, 495, 495, 495, 495, 495, 495, 495, 495, 495, 495, 495, 495, 495, 495, 495, 495, 495, 495, 495, 495, 495, 495, 495, 495, 495, 495, 495, 495, 495, 494, 495, 495, 495, 495, 495, 495, 495, 494, 494, 495, 495, 495, 494, 495, 495, 495, 495, 495, 495, 495, 495, 495, 495, 495, 494, 495, 495, 495, 495, 494, 495, 494, 495, 495, 494, 494, 495, 495, 495, 494, 495, 495, 494, 494, 495, 494, 495, 495, 494, 495, 495, 494, 495, 495, 494, 495, 495, 495, 494, 494, 493, 494, 489, 487, 494, 494, 499, 494, 474, 505, 497, 489, 490, 480, 500, 493, 483, 509, 484, 485, 504, 498, 481, 489, 472, 509, 501, 501, 497, 496, 490, 482, 500, 507, 488, 484, 497, 506, 491, 501, 505, 491, 501, 497, 487, 490, 508, 499, 494, 471, 512, 494, 485, 494, 502, 496, 493, 500, 495, 486, 484, 504, 496, 485, 512, 503, 495, 482, 502, 487, 512, 499, 494, 498, 500, 492, 499, 487, 510, 502, 495, 494, 495, 499, 499, 503, 486, 496, 492, 503, 495, 496, 500, 496, 501, 498, 496, 490, 504, 493, 498, 496, 492, 495, 501, 495, 500, 497, 499, 494, 493, 494, 499, 495, 502, 494, 497, 493, 498, 487, 499, 493, 496, 499, 489, 495, 502, 498, 494, 494, 496, 490, 500, 500, 496, 501, 498, 500, 493, 494, 499, 496, 494, 498, 495, 495, 491, 502, 498, 489, 501, 494, 499, 496, 496, 493, 502, 494, 494, 497, 494, 494, 488, 497, 495, 495, 492, 495, 494, 496, 485, 500, 498, 495, 498, 497, 493, 499, 494, 494, 494, 502, 494, 498, 494, 497, 497, 495, 495, 498, 496, 497, 495, 498, 492, 500, 493, 492, 497, 496, 481, 504, 497, 494, 494, 495, 492, 496, 485, 500, 494, 489, 494, 493, 496, 492, 498, 494, 493, 500, 500, 491, 496, 494, 487, 497, 494, 487, 495, 495, 495, 497, 490, 496, 494, 490, 497, 495, 497, 491, 495, 495, 495, 496, 499, 494, 492, 488, 501, 498, 495, 493, 495, 493, 498, 494, 499, 494, 496, 495, 494, 494, 494, 492, 494, 495, 492, 493, 500, 499, 493, 494, 494, 493, 499, 491, 492, 491, 498, 491, 494, 498, 497, 498, 494, 493, 497, 493, 493, 495, 494, 489, 494, 497, 494, 500, 500, 490, 489, 496, 496, 487, 496, 491, 494, 494, 494, 492, 495, 495, 493, 497, 497, 490, 491, 498, 499, 494, 496, 495, 490, 496, 492, 493, 496, 498, 495, 487, 486, 499, 496, 495, 489, 488, 494, 491, 508, 485, 500, 497, 491, 496, 495, 495, 494, 492, 492, 497, 495, 494, 481, 514, 495, 491, 493, 496, 495, 495, 494, 491, 493, 496, 493, 498, 495, 495, 492, 494, 495, 499, 494, 494, 496, 494, 490, 490, 503, 498, 493, 493, 493, 497, 494, 495, 494, 491, 495, 493, 494, 498, 492, 494, 498, 492, 493, 497, 488, 490, 492, 498, 494, 495, 489, 502, 496, 493, 496, 484, 507, 498, 494, 497, 494, 491, 494, 494, 494, 492, 499, 492, 494, 493, 494, 493, 497, 494, 495, 496, 493, 492, 494, 491, 494, 498, 496, 496, 489, 498, 494, 495, 489, 501, 497, 492, 494, 498, 495, 489, 500, 493, 488, 495, 492, 493, 500, 494, 497, 491, 496, 495, 494, 494]"
rest,"[495, 493, 488, 494, 482, 498, 491, 495, 495, 494, 494, 495, 494, 496, 495, 491, 491, 494, 493, 497, 494, 494, 490, 495, 495, 490, 495, 485, 504, 497, 494, 496, 494, 492, 496, 494, 496, 489, 494, 496, 493, 489, 491, 495, 499, 495, 497, 492, 491, 494, 495, 493, 492, 495, 494, 494, 493, 494, 494, 495, 497, 492, 491, 502, 495, 495, 494, 494, 496, 494, 493, 496, 497, 492, 500, 491, 494, 489, 499, 496, 496, 498, 493, 483, 493, 498, 495, 494, 486, 496, 494, 497, 494, 494, 494, 494, 494, 494, 494, 494, 494, 494, 494, 495, 494, 495, 495, 494, 494, 494, 494, 494, 495, 494, 494, 494, 494, 495, 494, 494, 494, 494, 493, 494, 494, 494, 494, 493, 494, 493, 493, 494, 493, 493, 493, 493, 493, 493, 493, 493, 493, 493, 493, 493, 493, 492, 492, 493, 492, 493, 492, 493, 492, 493, 493, 492, 493, 492, 493, 493, 492, 493, 493, 493, 493, 493, 493, 493, 492, 493, 493, 493, 493, 493, 493, 493, 493, 493, 493, 493, 493, 493, 493, 493, 492, 494, 493, 493, 493, 493, 493, 493, 493, 493, 493, 493, 493, 493, 493, 493, 493, 493, 493, 493, 493, 493, 493, 493, 493, 493, 493, 493, 493, 493, 493, 493, 493, 493, 493, 493, 493, 493, 493, 493, 493, 493, 492, 493, 493, 493, 493, 493, 493, 493, 493, 492, 493, 493, 493, 493, 493, 493, 493, 493, 492, 492, 492, 492, 493, 493, 493, 492, 493, 493, 493, 493, 493, 493, 493, 493, 493, 493, 493, 493, 493, 493, 493, 493, 493, 494, 494, 493, 494, 494, 493, 493, 493, 494, 494, 494, 494, 494, 493, 494, 494, 494, 494, 494, 494, 494, 494, 494, 494, 494, 494, 494, 494, 494, 494, 494, 494, 494, 494, 494, 494, 494, 494, 494, 494, 494, 494, 494, 494, 494, 494, 494, 494, 494, 494, 494, 494, 494, 494, 494, 494, 494, 494, 494, 494, 494, 494, 494, 494, 494, 494, 494, 494, 494, 494, 494, 494, 494, 494, 494, 494, 494, 494, 494, 494, 494, 494, 494, 494, 494, 494, 494, 494, 494, 494, 494, 494, 494, 494, 494, 494, 494, 494, 494, 494, 495, 494, 494, 494, 494, 494, 494, 494, 494, 494, 494, 494, 494, 495, 494, 494, 494, 494, 494, 494, 494, 494, 494, 494, 494, 494, 494, 494, 494, 495, 494, 494, 495, 495, 494, 494, 494, 494, 495, 494, 495, 495, 495, 495, 494, 495, 495, 495, 495, 495, 495, 495, 495, 495, 495, 495, 495, 495, 495, 495, 495, 495, 495, 494, 495, 495, 495, 495, 495, 495, 494, 495, 495, 494, 494, 495, 495, 495, 494, 494, 495, 495, 494, 495, 495, 495, 495, 495, 496, 495, 495, 495, 495, 495, 495, 495, 495, 495, 495, 495, 495, 495, 495, 495, 495, 495, 496, 495, 495, 495, 495, 495, 495, 495, 496, 495, 495, 495, 495, 495, 495, 495, 496, 495, 495, 496, 495, 495, 495, 495, 496, 495, 496, 496, 496, 496, 496, 495, 496, 495, 495, 496, 495, 495, 495, 495, 495, 495, 495, 496, 495, 495, 496, 495, 495, 495, 496, 495, 495, 496, 495, 496, 495, 495, 496, 496, 495, 496, 495, 496, 495, 495, 496, 496, 496, 495, 495, 496, 496, 495, 496, 495, 496, 496, 496, 495, 496, 495, 496, 495, 495, 496, 496, 495, 496, 496, 496, 496, 496, 496, 495, 495, 496, 496, 496, 496, 495, 495]"
right,"[495, 496, 496, 496, 496, 495, 495, 496, 496, 495, 495, 496, 495, 495, 495, 495, 495, 495, 495, 495, 495, 495, 496, 495, 495, 495, 495, 495, 495, 495, 495, 495, 495, 495, 495, 495, 495, 495, 495, 495, 495, 495, 495, 495, 495, 495, 495, 495, 495, 495, 495, 495, 495, 495, 495, 494, 495, 495, 495, 495, 495, 495, 495, 495, 494, 495, 495, 495, 495, 495, 495, 495, 495, 495, 496, 495, 495, 495, 495, 495, 495, 496, 495, 495, 496, 495, 495, 496, 495, 495, 495, 495, 495, 495, 495, 496, 496, 496, 495, 495, 496, 495, 495, 495, 495, 495, 495, 495, 495, 496, 495, 494, 485, 489, 490, 489, 506, 496, 495, 491, 502, 496, 496, 497, 495, 494, 490, 494, 487, 498, 505, 495, 495, 500, 500, 490, 503, 490, 499, 495, 502, 492, 490, 494, 493, 496, 501, 491, 501, 491, 490, 501, 504, 502, 497, 498, 490, 480, 503, 504, 495, 501, 497, 499, 498, 490, 505, 499, 494, 503, 489, 502, 500, 494, 496, 497, 489, 503, 499, 495, 500, 495, 483, 503, 495, 501, 500, 498, 498, 492, 488, 497, 500, 498, 495, 492, 500, 487, 495, 492, 503, 486, 497, 502, 487, 496, 502, 496, 500, 490, 504, 495, 491, 499, 492, 506, 495, 500, 492, 504, 495, 502, 492, 491, 503, 488, 508, 492, 495, 487, 504, 495, 498, 487, 499, 501, 490, 497, 498, 490, 503, 495, 496, 497, 496, 494, 500, 490, 502, 501, 494, 497, 489, 509, 494, 504, 487, 499, 493, 491, 499, 494, 499, 492, 495, 500, 496, 503, 496, 496, 494, 494, 490, 502, 498, 490, 493, 504, 496, 491, 501, 491, 497, 494, 494, 501, 494, 494, 498, 498, 494, 489, 499, 491, 494, 493, 497, 494, 497, 503, 494, 494, 497, 497, 494, 488, 499, 493, 499, 494, 491, 497, 500, 498, 494, 486, 507, 494, 484, 499, 499, 487, 496, 495, 494, 494, 496, 491, 497, 495, 485, 508, 500, 486, 495, 501, 486, 494, 500, 495, 491, 498, 494, 489, 501, 490, 496, 493, 496, 493, 495, 499, 494, 494, 495, 495, 492, 498, 497, 495, 489, 498, 488, 499, 499, 497, 494, 494, 487, 494, 497, 488, 495, 498, 495, 491, 498, 494, 495, 496, 493, 495, 494, 496, 494, 488, 489, 504, 494, 499, 495, 494, 494, 490, 488, 501, 498, 496, 498, 487, 499, 495, 495, 495, 490, 494, 501, 495, 494, 494, 494, 494, 493, 499, 495, 491, 497, 495, 495, 486, 494, 495, 494, 494, 494, 494, 495, 495, 493, 492, 496, 495, 494, 495, 494, 489, 494, 494, 492, 493, 509, 493, 492, 493, 501, 491, 493, 495, 494, 490, 492, 496, 495, 491, 497, 488, 496, 496, 492, 495, 496, 498, 491, 494, 496, 494, 495, 494, 493, 493, 494, 494, 495, 489, 494, 496, 493, 495, 494, 493, 488, 501, 491, 493, 495, 493, 494, 493, 494, 490, 497, 495, 492, 491, 494, 494, 495, 490, 501, 492, 495, 493, 493, 494, 494, 493, 494, 498, 491, 496, 499, 493, 491, 494, 492, 494, 487, 494, 498, 494, 495, 491, 493, 496, 490, 496, 496, 493, 494, 493, 489, 494, 499, 495, 497, 491, 494, 492, 497, 497, 491, 494, 492, 499, 493, 493, 494, 492, 494, 494, 492, 497, 491, 491, 493, 499, 494, 492, 492, 493, 499, 493, 495, 494, 493, 493, 494, 493, 493, 493, 489, 496, 495, 493, 498, 494]"
rest,"[494, 495, 497, 494, 492, 496, 495, 495, 488, 494, 498, 495, 495, 492, 492, 493, 488, 501, 492, 494, 496, 497, 494, 494, 491, 495, 493, 496, 491, 488, 497, 494, 497, 493, 494, 491, 492, 495, 483, 498, 497, 495, 493, 499, 494, 493, 495, 494, 485, 491, 503, 494, 498, 490, 500, 496, 494, 488, 494, 496, 485, 493, 496, 497, 496, 494, 489, 491, 495, 492, 501, 495, 495, 497, 496, 491, 496, 498, 494, 490, 495, 496, 492, 487, 502, 495, 494, 496, 496, 490, 488, 505, 494, 494, 499, 495, 497, 494, 494, 494, 490, 498, 495, 494, 495, 495, 494, 495, 495, 495, 494, 495, 494, 495, 495, 494, 494, 496, 495, 495, 494, 494, 495, 495, 495, 494, 495, 495, 494, 494, 494, 494, 494, 494, 494, 495, 494, 494, 494, 493, 493, 493, 493, 493, 493, 493, 493, 493, 493, 492, 493, 493, 492, 493, 493, 493, 493, 493, 493, 493, 493, 493, 493, 493, 493, 493, 493, 493, 493, 493, 493, 493, 493, 493, 494, 493, 493, 493, 493, 493, 493, 493, 494, 493, 493, 493, 493, 493, 494, 493, 494, 493, 494, 494, 493, 493, 493, 493, 493, 493, 493, 493, 493, 493, 493, 493, 493, 493, 494, 494, 493, 493, 494, 493, 494, 493, 493, 494, 493, 494, 494, 493, 494, 493, 494, 493, 494, 494, 493, 493, 493, 493, 494, 493, 493, 494, 493, 493, 493, 493, 493, 493, 493, 493, 493, 493, 493, 493, 493, 493, 493, 493, 493, 493, 493, 493, 493, 493, 493, 493, 493, 493, 494, 493, 493, 494, 493, 493, 493, 494, 494, 493, 493, 494, 494, 494, 494, 494, 494, 494, 494, 494, 494, 493, 494, 494, 494, 494, 494, 494, 494, 494, 494, 494, 494, 494, 494, 494, 494, 494, 494, 494, 495, 494, 495, 494, 494, 494, 494, 494, 495, 494, 494, 494, 494, 494, 494, 494, 494, 494, 494, 494, 494, 494, 494, 494, 494, 494, 494, 494, 494, 494, 494, 494, 495, 494, 494, 494, 494, 494, 494, 494, 494, 494, 494, 494, 494, 494, 494, 494, 494, 494, 494, 494, 494, 495, 494, 494, 494, 494, 494, 494, 494, 494, 494, 495, 494, 494, 494, 495, 494, 495, 494, 495, 494, 495, 494, 494, 494, 495, 494, 494, 494, 494, 494, 494, 494, 494, 494, 494, 494, 494, 494, 494, 495, 494, 494, 495, 494, 494, 494, 494, 494, 495, 494, 494, 494, 495, 494, 494, 494, 494, 494, 494, 494, 495, 495, 494, 494, 495, 494, 495, 495, 495, 495, 494, 495, 494, 495, 494, 495, 495, 495, 494, 495, 495, 495, 495, 495, 494, 495, 494, 495, 494, 494, 495, 495, 495, 495, 495, 495, 494, 494, 494, 495, 495, 494, 495, 494, 495, 495, 495, 495, 495, 494, 494, 495, 494, 494, 495, 495, 495, 495, 495, 495, 494, 494, 495, 494, 495, 495, 494, 495, 494, 495, 494, 495, 495, 494, 495, 495, 495, 495, 494, 495, 495, 495, 495, 494, 494, 495, 494, 495, 495, 495, 494, 495, 495, 495, 495, 494, 495, 494, 494, 495, 494, 495, 495, 495, 494, 495, 495, 495, 494, 494, 495, 495, 495, 495, 495, 495, 495, 494, 495, 495, 495, 495, 495, 495, 495, 495, 494, 495, 494, 495, 495, 495, 495, 494, 494, 495, 495, 495, 495, 495, 495, 495, 495, 495, 494, 495, 494, 495, 495, 494, 494, 495, 494, 495, 494, 495, 495, 495, 494, 494, 495]"
right,"[494, 495, 495, 495, 495, 495, 495, 495, 495, 495, 494, 495, 495, 495, 495, 495, 494, 495, 494, 494, 495, 495, 495, 494, 494, 495, 495, 494, 495, 495, 494, 494, 495, 494, 495, 495, 495, 494, 494, 495, 495, 495, 494, 495, 494, 495, 495, 495, 494, 495, 495, 494, 495, 495, 494, 495, 495, 495, 494, 494, 495, 495, 494, 495, 495, 495, 495, 495, 495, 495, 495, 495, 494, 495, 495, 495, 495, 495, 495, 495, 495, 495, 495, 495, 495, 495, 495, 495, 495, 495, 495, 495, 495, 496, 495, 495, 495, 495, 495, 495, 496, 495, 495, 495, 495, 495, 495, 495, 495, 495, 495, 493, 487, 497, 498, 498, 493, 490, 495, 498, 494, 492, 496, 502, 491, 501, 501, 493, 494, 497, 492, 483, 501, 498, 501, 492, 494, 500, 471, 512, 487, 506, 500, 493, 508, 493, 496, 503, 491, 494, 466, 506, 524, 499, 487, 488, 519, 490, 509, 495, 486, 498, 501, 505, 494, 498, 480, 503, 506, 482, 519, 500, 502, 494, 501, 503, 493, 501, 486, 494, 490, 498, 506, 492, 500, 506, 494, 492, 487, 506, 495, 481, 508, 495, 502, 498, 494, 489, 509, 490, 508, 495, 491, 504, 492, 504, 502, 484, 504, 500, 499, 495, 490, 505, 504, 494, 489, 499, 496, 494, 501, 482, 490, 498, 502, 494, 502, 496, 504, 492, 498, 493, 488, 500, 505, 501, 499, 494, 489, 489, 501, 494, 495, 478, 512, 507, 503, 498, 494, 483, 515, 487, 498, 500, 485, 513, 493, 496, 487, 506, 491, 498, 496, 498, 480, 500, 493, 491, 500, 501, 487, 493, 505, 490, 504, 492, 497, 492, 496, 498, 500, 485, 495, 504, 499, 494, 496, 496, 495, 498, 493, 483, 505, 501, 489, 492, 503, 497, 496, 495, 496, 494, 494, 497, 500, 486, 498, 500, 486, 498, 495, 501, 477, 507, 486, 505, 495, 494, 499, 495, 480, 496, 489, 493, 496, 493, 488, 495, 498, 494, 497, 487, 504, 494, 491, 490, 494, 503, 494, 501, 496, 494, 493, 495, 488, 496, 498, 493, 483, 494, 498, 494, 489, 499, 494, 486, 507, 495, 493, 493, 495, 496, 494, 497, 487, 494, 495, 496, 488, 499, 488, 500, 496, 495, 494, 496, 498, 494, 494, 492, 498, 496, 480, 508, 488, 496, 502, 495, 496, 491, 492, 495, 494, 493, 500, 494, 495, 495, 497, 488, 492, 496, 495, 495, 495, 484, 501, 492, 495, 496, 496, 494, 496, 498, 494, 494, 491, 495, 493, 495, 477, 503, 499, 494, 497, 491, 495, 494, 496, 484, 496, 496, 491, 494, 496, 498, 494, 491, 492, 488, 498, 496, 495, 482, 511, 492, 493, 482, 501, 494, 493, 495, 496, 491, 498, 494, 494, 494, 491, 496, 492, 493, 492, 477, 511, 496, 495, 494, 494, 489, 496, 494, 489, 494, 494, 493, 495, 494, 496, 488, 497, 489, 492, 495, 491, 497, 497, 494, 490, 494, 492, 495, 496, 496, 493, 495, 494, 490, 495, 494, 495, 494, 495, 492, 488, 496, 497, 497, 494, 491, 495, 495, 492, 488, 500, 494, 494, 497, 493, 493, 496, 492, 497, 486, 496, 503, 496, 490, 499, 494, 494, 495, 493, 492, 497, 493, 494, 494, 494, 494, 494, 495, 490, 492, 496, 489, 498, 492, 497, 494, 495, 498, 493, 492, 499, 493, 496, 495, 495, 495, 487, 499, 492, 486, 499, 490, 502, 495, 494, 491, 499, 493, 495, 493, 494, 489, 503]"
rest,"[490, 494, 496, 494, 484, 493, 496, 494, 496, 495, 491, 494, 494, 492, 494, 496, 495, 494, 485, 498, 494, 494, 496, 486, 494, 495, 495, 495, 492, 495, 490, 491, 497, 495, 494, 484, 484, 500, 495, 497, 488, 497, 494, 499, 495, 494, 494, 494, 493, 498, 490, 495, 496, 494, 495, 495, 494, 491, 494, 489, 494, 498, 494, 493, 495, 495, 488, 496, 495, 494, 495, 494, 491, 488, 496, 497, 494, 489, 486, 490, 477, 519, 498, 492, 483, 500, 494, 497, 495, 491, 494, 491, 487, 504, 496, 495, 494, 493, 487, 494, 494, 494, 495, 494, 495, 494, 494, 495, 494, 495, 494, 494, 494, 495, 494, 494, 494, 495, 494, 494, 494, 494, 494, 495, 494, 494, 494, 494, 494, 494, 494, 494, 494, 493, 493, 493, 494, 493, 493, 493, 493, 493, 493, 493, 493, 493, 492, 493, 493, 493, 493, 493, 493, 493, 493, 493, 493, 493, 493, 493, 493, 494, 494, 493, 493, 493, 494, 494, 493, 492, 493, 494, 493, 493, 493, 493, 493, 493, 493, 493, 493, 494, 493, 493, 493, 493, 493, 493, 493, 493, 493, 493, 494, 494, 494, 494, 493, 494, 494, 493, 494, 494, 493, 494, 494, 494, 493, 494, 494, 494, 494, 493, 494, 494, 494, 494, 494, 494, 494, 494, 494, 494, 493, 494, 494, 493, 494, 494, 493, 494, 494, 494, 494, 494, 493, 494, 494, 494, 494, 494, 494, 494, 494, 494, 493, 494, 494, 493, 494, 494, 494, 493, 493, 494, 494, 493, 493, 494, 494, 494, 494, 494, 494, 493, 494, 493, 494, 494, 493, 494, 494, 494, 494, 493, 494, 494, 494, 494, 494, 495, 494, 494, 494, 494, 494, 494, 494, 494, 494, 494, 495, 494, 494, 494, 494, 494, 495, 494, 495, 494, 494, 494, 494, 495, 494, 494, 494, 494, 494, 494, 494, 494, 494, 494, 495, 494, 494, 494, 494, 494, 494, 494, 494, 495, 494, 495, 495, 495, 495, 495, 495, 494, 495, 495, 495, 495, 495, 495, 495, 494, 495, 495, 495, 495, 495, 495, 495, 495, 495, 495, 495, 495, 495, 495, 495, 495, 495, 495, 495, 495, 495, 495, 495, 495, 495, 495, 495, 494, 495, 495, 495, 495, 495, 495, 495, 495, 495, 495, 495, 495, 495, 495, 495, 495, 495, 495, 495, 495, 495, 495, 495, 495, 495, 495, 495, 496, 495, 495, 495, 495, 495, 495, 495, 495, 495, 495, 495, 495, 495, 495, 494, 495, 495, 495, 495, 495, 495, 495, 495, 495, 495, 495, 495, 495, 495, 495, 495, 495, 495, 495, 495, 495, 495, 495, 495, 495, 495, 495, 495, 495, 495, 495, 495, 495, 495, 495, 495, 495, 495, 494, 495, 495, 495, 495, 495, 495, 495, 495, 495, 495, 495, 495, 494, 495, 495, 495, 495, 495, 495, 495, 495, 495, 495, 495, 495, 495, 495, 495, 495, 495, 495, 495, 495, 494, 495, 495, 495, 494, 495, 495, 495, 495, 495, 494, 495, 495, 495, 495, 495, 495, 494, 495, 495, 495, 495, 495, 495, 495, 495, 495, 495, 495, 495, 495, 495, 495, 495, 495, 495, 496, 495, 495, 495, 495, 495, 495, 495, 495, 495, 495, 495, 495, 495, 495, 495, 495, 495, 495, 496, 495, 495, 495, 496, 495, 495, 495, 495, 495, 495, 495, 495, 495, 495, 495, 495, 496, 495, 495, 495, 496, 496, 496, 495, 496, 495, 495, 495, 495, 495, 495, 495, 495, 496, 495, 495, 495, 496]"
right,"[495, 495, 495, 496, 495, 495, 495, 495, 495, 495, 495, 495, 495, 495, 495, 495, 495, 495, 495, 495, 494, 495, 494, 495, 495, 495, 494, 495, 494, 495, 495, 494, 494, 495, 494, 495, 495, 495, 495, 495, 495, 494, 495, 494, 494, 495, 495, 495, 495, 495, 495, 495, 494, 495, 495, 495, 495, 494, 494, 495, 495, 495, 495, 495, 495, 495, 494, 495, 495, 495, 495, 495, 495, 495, 495, 495, 495, 495, 495, 495, 496, 495, 495, 495, 495, 495, 496, 495, 495, 496, 495, 495, 496, 495, 495, 495, 495, 495, 495, 496, 496, 496, 495, 496, 496, 495, 495, 495, 496, 496, 495, 496, 496, 495, 495, 495, 496, 495, 496, 496, 495, 496, 496, 495, 496, 495, 495, 496, 496, 495, 496, 494, 495, 496, 496, 494, 493, 496, 497, 495, 495, 494, 494, 499, 495, 496, 494, 495, 495, 497, 495, 493, 482, 497, 498, 499, 493, 495, 495, 495, 496, 495, 496, 497, 499, 483, 501, 490, 496, 491, 498, 494, 495, 498, 496, 504, 496, 495, 492, 497, 494, 504, 488, 499, 502, 499, 491, 501, 494, 499, 496, 503, 500, 496, 497, 499, 499, 500, 496, 498, 480, 501, 494, 488, 501, 497, 496, 497, 493, 498, 494, 494, 493, 499, 494, 494, 499, 492, 494, 498, 492, 484, 498, 498, 503, 494, 493, 499, 494, 498, 489, 495, 494, 499, 497, 491, 507, 495, 491, 498, 490, 507, 496, 499, 499, 496, 497, 498, 497, 493, 498, 493, 497, 506, 482, 504, 495, 499, 501, 492, 498, 494, 496, 496, 492, 499, 494, 486, 509, 494, 489, 496, 494, 500, 499, 495, 497, 489, 495, 498, 497, 497, 495, 503, 489, 499, 495, 491, 494, 499, 498, 496, 500, 491, 492, 502, 498, 493, 496, 497, 494, 497, 495, 497, 494, 487, 500, 494, 502, 491, 496, 495, 499, 496, 494, 489, 503, 497, 494, 493, 499, 494, 499, 497, 496, 494, 487, 498, 493, 501, 494, 492, 494, 493, 495, 499, 494, 496, 494, 496, 484, 496, 493, 500, 496, 491, 496, 491, 497, 495, 495, 492, 494, 495, 495, 492, 495, 500, 495, 492, 501, 492, 492, 497, 493, 491, 494, 498, 495, 491, 498, 494, 495, 497, 492, 499, 494, 494, 495, 494, 491, 499, 495, 484, 496, 494, 488, 498, 495, 496, 494, 488, 497, 496, 494, 489, 500, 494, 494, 497, 490, 499, 492, 493, 495, 495, 495, 500, 494, 495, 490, 495, 500, 494, 493, 492, 494, 492, 492, 496, 498, 496, 495, 497, 490, 497, 491, 502, 492, 496, 495, 495, 495, 494, 495, 492, 499, 496, 494, 495, 493, 495, 495, 490, 497, 491, 501, 490, 495, 501, 495, 493, 492, 488, 501, 494, 494, 491, 504, 492, 493, 493, 495, 496, 494, 494, 494, 493, 480, 506, 478, 504, 494, 492, 489, 489, 505, 493, 494, 494, 489, 494, 495, 494, 490, 493, 497, 494, 486, 489, 507, 494, 496, 490, 496, 496, 494, 489, 493, 496, 494, 495, 494, 500, 489, 494, 495, 495, 494, 490, 497, 495, 495, 494, 497, 490, 494, 495, 489, 498, 498, 496, 486, 496, 496, 495, 494, 490, 494, 490, 489, 497, 489, 495, 495, 494, 493, 495, 493, 494, 495, 494, 493, 495, 492, 493, 491, 494, 495, 495, 502, 495, 486, 503, 496, 495, 495, 492, 494, 493, 495, 487, 494, 501, 493, 498, 493, 491, 499, 493, 491, 499, 495, 494, 494, 496]"
rest,"[492, 493, 503, 489, 497, 495, 496, 492, 496, 494, 492, 493, 496, 493, 493, 494, 494, 492, 498, 495, 494, 498, 494, 491, 496, 493, 494, 493, 494, 496, 494, 494, 495, 491, 495, 493, 495, 497, 493, 494, 494, 491, 496, 494, 495, 496, 495, 492, 499, 493, 492, 498, 494, 496, 493, 494, 492, 492, 496, 496, 492, 490, 499, 492, 496, 501, 495, 494, 491, 495, 498, 493, 497, 493, 493, 494, 494, 488, 492, 490, 500, 493, 494, 494, 493, 496, 495, 495, 494, 494, 493, 494, 495, 489, 493, 498, 495, 487, 496, 497, 496, 495, 494, 494, 494, 495, 494, 494, 494, 494, 494, 494, 494, 494, 494, 494, 494, 494, 494, 494, 494, 495, 494, 494, 494, 494, 494, 494, 493, 493, 493, 493, 493, 493, 493, 493, 493, 492, 492, 492, 492, 491, 491, 491, 491, 491, 491, 491, 491, 491, 491, 491, 491, 491, 491, 491, 492, 491, 491, 491, 491, 492, 492, 492, 492, 492, 492, 492, 492, 492, 492, 493, 493, 492, 493, 493, 493, 493, 493, 493, 493, 493, 493, 493, 494, 493, 493, 494, 493, 493, 494, 493, 494, 494, 493, 494, 493, 493, 494, 494, 494, 494, 493, 493, 493, 493, 493, 494, 493, 493, 494, 494, 494, 494, 494, 494, 494, 494, 494, 494, 494, 494, 494, 494, 494, 494, 494, 495, 495, 494, 494, 494, 494, 494, 494, 494, 494, 494, 494, 494, 494, 494, 494, 494, 494, 495, 494, 494, 494, 495, 494, 494, 494, 494, 494, 494, 495, 494, 495, 495, 494, 495, 495, 495, 494, 494, 495, 495, 494, 495, 495, 495, 495, 495, 495, 494, 495, 495, 495, 494, 495, 495, 495, 495, 495, 495, 494, 495, 495, 495, 495, 495, 495, 495, 495, 495, 494, 494, 495, 495, 495, 494, 494, 494, 495, 495, 494, 495, 494, 495, 494, 494, 495, 495, 494, 495, 495, 494, 495, 494, 494, 494, 494, 495, 494, 494, 495, 495, 494, 494, 494, 494, 494, 494, 494, 494, 494, 494, 494, 493, 493, 493, 494, 496, 493, 494, 494, 497, 494, 494, 495, 494, 493, 492, 495, 493, 493, 494, 492, 494, 497, 494, 494, 493, 494, 494, 494, 494, 494, 493, 494, 494, 493, 494, 494, 494, 495, 493, 494, 494, 493, 494, 492, 493, 494, 492, 495, 494, 492, 494, 494, 493, 495, 494, 493, 494, 494, 494, 494, 494, 494, 495, 494, 494, 493, 492, 494, 493, 494, 494, 496, 497, 494, 495, 496, 494, 494, 494, 494, 494, 494, 494, 494, 494, 494, 494, 494, 494, 494, 494, 494, 494, 494, 494, 494, 494, 494, 494, 494, 494, 494, 494, 494, 494, 494, 494, 494, 494, 494, 494, 494, 494, 494, 494, 494, 494, 494, 494, 494, 494, 494, 494, 494, 494, 494, 494, 494, 494, 494, 494, 494, 494, 494, 493, 494, 494, 494, 494, 494, 494, 494, 494, 494, 494, 494, 494, 494, 494, 494, 494, 495, 494, 494, 494, 494, 494, 494, 495, 494, 494, 494, 494, 494, 494, 494, 494, 494, 494, 494, 493, 493, 493, 493, 493, 493, 493, 493, 494, 493, 493, 493, 493, 493, 493, 493, 493, 493, 493, 493, 493, 493, 493, 493, 493, 493, 493, 493, 493, 493, 493, 493, 493, 493, 493, 493, 493, 493, 493, 493, 493, 493, 493, 493, 493, 494, 494, 494, 494, 494, 494, 494, 494, 494, 494, 494, 494, 494, 494, 494, 495, 495, 495, 495, 495, 495, 496]"
right,"[495, 495, 496, 496, 496, 496, 496, 496, 496, 496, 496, 496, 496, 496, 496, 496, 496, 496, 496, 496, 496, 496, 496, 496, 496, 496, 496, 496, 496, 496, 496, 496, 496, 496, 496, 496, 496, 496, 496, 496, 496, 496, 496, 496, 496, 496, 496, 496, 496, 496, 496, 496, 496, 496, 496, 496, 496, 496, 496, 496, 496, 496, 496, 496, 496, 496, 496, 496, 496, 495, 496, 496, 496, 495, 496, 495, 496, 495, 496, 496, 496, 496, 496, 496, 495, 496, 495, 496, 495, 496, 495, 495, 496, 495, 496, 496, 496, 496, 495, 495, 496, 495, 495, 495, 495, 495, 493, 495, 493, 494, 497, 496, 495, 498, 495, 495, 495, 497, 481, 501, 494, 488, 496, 499, 498, 495, 503, 492, 494, 493, 491, 497, 481, 506, 499, 506, 492, 479, 521, 492, 496, 484, 508, 483, 514, 484, 499, 498, 500, 495, 501, 495, 489, 502, 490, 504, 488, 504, 492, 506, 481, 506, 503, 493, 503, 493, 500, 508, 498, 494, 497, 501, 490, 494, 493, 496, 491, 499, 491, 508, 497, 507, 491, 507, 490, 502, 498, 494, 502, 490, 492, 491, 508, 495, 489, 499, 492, 479, 499, 502, 498, 479, 506, 491, 507, 500, 495, 493, 494, 500, 498, 493, 493, 498, 501, 496, 495, 503, 490, 499, 497, 493, 494, 508, 491, 496, 492, 487, 503, 485, 506, 500, 489, 499, 494, 498, 492, 496, 483, 514, 493, 501, 491, 495, 501, 496, 494, 493, 496, 495, 498, 497, 494, 494, 487, 486, 520, 501, 504, 494, 496, 494, 487, 497, 494, 492, 495, 498, 496, 497, 497, 498, 487, 493, 502, 497, 491, 488, 496, 497, 496, 489, 495, 498, 495, 498, 495, 493, 501, 488, 503, 506, 493, 491, 499, 501, 494, 494, 491, 492, 494, 501, 497, 495, 499, 496, 493, 494, 496, 498, 494, 496, 498, 493, 499, 489, 505, 500, 493, 485, 496, 492, 499, 496, 500, 494, 486, 494, 484, 500, 498, 495, 491, 494, 498, 487, 493, 490, 495, 486, 502, 498, 494, 495, 491, 494, 492, 494, 493, 489, 495, 497, 493, 494, 500, 496, 498, 487, 502, 495, 489, 496, 495, 492, 492, 499, 496, 493, 487, 493, 497, 503, 495, 501, 492, 489, 492, 495, 493, 493, 484, 504, 497, 492, 497, 495, 497, 494, 486, 490, 494, 494, 496, 499, 495, 493, 492, 494, 492, 495, 494, 491, 495, 495, 493, 494, 493, 492, 496, 493, 493, 491, 496, 494, 494, 495, 495, 489, 494, 502, 498, 487, 494, 493, 486, 496, 500, 494, 495, 492, 489, 495, 500, 498, 495, 497, 486, 498, 492, 496, 483, 490, 505, 497, 493, 492, 494, 494, 494, 488, 499, 489, 494, 500, 497, 494, 493, 494, 494, 496, 493, 484, 491, 491, 496, 494, 490, 494, 495, 494, 494, 496, 493, 493, 491, 498, 495, 481, 499, 500, 485, 490, 483, 502, 495, 494, 491, 495, 495, 499, 494, 495, 494, 485, 493, 493, 493, 493, 491, 497, 496, 493, 494, 494, 496, 497, 493, 497, 494, 493, 496, 487, 505, 491, 494, 494, 494, 496, 496, 493, 485, 494, 491, 497, 492, 499, 494, 484, 505, 497, 495, 496, 494, 494, 494, 494, 490, 495, 494, 492, 503, 493, 506, 493, 498, 487, 502, 496, 494, 494, 490, 498, 492, 496, 497, 489, 490, 489, 498, 499, 494, 498, 492, 489, 498, 493, 500, 494, 490, 501, 492, 494, 494, 494, 494, 497, 495]"
rest,"[479, 503, 494, 484, 494, 495, 494, 498, 494, 494, 493, 495, 500, 492, 494, 481, 501, 494, 499, 494, 494, 490, 492, 499, 495, 500, 494, 489, 496, 494, 499, 486, 491, 486, 503, 486, 496, 492, 496, 493, 495, 497, 490, 496, 491, 494, 493, 498, 498, 494, 490, 495, 494, 494, 494, 486, 495, 500, 499, 494, 484, 496, 497, 493, 497, 494, 493, 496, 496, 494, 488, 492, 490, 504, 496, 495, 489, 497, 496, 492, 496, 493, 494, 492, 494, 494, 495, 497, 493, 490, 498, 492, 494, 496, 494, 494, 491, 499, 491, 494, 496, 496, 494, 495, 494, 490, 494, 495, 495, 494, 494, 494, 494, 494, 495, 494, 495, 495, 494, 495, 494, 495, 494, 494, 494, 494, 494, 494, 494, 494, 494, 494, 494, 494, 494, 493, 494, 494, 494, 494, 493, 494, 493, 493, 493, 493, 494, 494, 493, 493, 493, 493, 494, 493, 494, 494, 494, 494, 493, 494, 493, 493, 494, 494, 494, 494, 494, 493, 494, 494, 494, 494, 494, 494, 494, 494, 494, 494, 494, 494, 493, 494, 493, 494, 494, 493, 494, 494, 494, 494, 494, 494, 494, 494, 494, 494, 494, 494, 494, 494, 494, 494, 494, 494, 494, 494, 494, 494, 494, 494, 494, 494, 494, 494, 493, 494, 494, 494, 494, 494, 494, 494, 494, 494, 494, 494, 494, 494, 494, 494, 494, 494, 494, 494, 494, 494, 494, 494, 494, 494, 494, 494, 494, 494, 494, 494, 494, 494, 494, 494, 494, 494, 494, 494, 494, 494, 494, 494, 494, 493, 494, 494, 494, 494, 494, 494, 494, 494, 494, 494, 494, 494, 494, 494, 494, 494, 494, 494, 494, 494, 494, 494, 494, 494, 494, 494, 494, 494, 494, 494, 495, 494, 494, 494, 494, 494, 494, 493, 494, 494, 494, 494, 494, 494, 494, 494, 494, 494, 494, 493, 494, 494, 494, 494, 493, 494, 494, 494, 494, 494, 494, 494, 494, 494, 494, 494, 494, 494, 494, 494, 494, 494, 495, 494, 494, 494, 494, 493, 494, 494, 494, 493, 494, 494, 494, 494, 494, 494, 494, 495, 494, 494, 494, 494, 494, 494, 494, 494, 494, 494, 494, 494, 494, 494, 494, 494, 494, 494, 494, 494, 494, 494, 494, 494, 494, 494, 494, 494, 493, 494, 495, 494, 493, 494, 494, 494, 494, 494, 493, 494, 494, 494, 493, 494, 494, 494, 494, 494, 494, 494, 494, 494, 493, 494, 494, 494, 494, 494, 494, 494, 494, 493, 493, 494, 494, 494, 494, 494, 493, 494, 494, 493, 493, 493, 494, 493, 493, 493, 493, 494, 493, 493, 493, 493, 493, 493, 493, 493, 492, 493, 493, 493, 493, 493, 493, 493, 493, 493, 494, 493, 494, 493, 493, 494, 494, 494, 494, 494, 494, 494, 494, 494, 494, 493, 494, 494, 494, 494, 495, 493, 493, 495, 494, 494, 494, 495, 494, 494, 494, 494, 494, 494, 494, 494, 495, 494, 494, 494, 494, 494, 494, 494, 494, 494, 494, 495, 495, 495, 494, 494, 494, 494, 494, 494, 494, 494, 494, 494, 494, 493, 494, 494, 493, 494, 494, 494, 494, 494, 494, 494, 494, 494, 494, 494, 494, 494, 494, 494, 494, 494, 493, 494, 494, 494, 494, 493, 494, 494, 494, 494, 494, 494, 494, 494, 494, 494, 494, 494, 493, 493, 494, 494, 494, 494, 494, 494, 494, 494, 494, 494, 494, 493, 494, 494, 493, 493, 493, 494, 494, 493, 494, 494, 493, 494, 493, 493, 494]"
right,"[493, 493, 494, 494, 493, 493, 494, 494, 494, 494, 494, 494, 494, 494, 494, 494, 494, 494, 494, 494, 494, 494, 495, 494, 494, 494, 494, 494, 494, 494, 494, 494, 495, 494, 494, 494, 494, 495, 494, 494, 494, 494, 494, 494, 494, 494, 494, 494, 494, 494, 494, 494, 494, 494, 494, 494, 494, 494, 494, 494, 494, 494, 495, 495, 494, 494, 494, 494, 494, 494, 494, 493, 494, 494, 494, 494, 494, 494, 494, 494, 494, 494, 494, 494, 494, 494, 494, 494, 494, 494, 494, 494, 494, 494, 494, 494, 494, 494, 494, 495, 494, 494, 494, 494, 494, 494, 494, 494, 495, 494, 492, 495, 496, 494, 491, 491, 498, 492, 486, 492, 503, 494, 494, 485, 491, 503, 497, 494, 480, 507, 502, 496, 495, 495, 492, 512, 493, 501, 496, 503, 497, 485, 476, 510, 508, 505, 487, 490, 514, 498, 478, 508, 502, 490, 498, 509, 496, 497, 496, 496, 493, 500, 496, 492, 506, 503, 496, 502, 503, 497, 494, 494, 504, 500, 499, 496, 495, 483, 498, 499, 490, 488, 500, 495, 501, 495, 493, 506, 497, 498, 492, 496, 494, 502, 495, 496, 495, 495, 492, 497, 482, 507, 496, 492, 482, 501, 494, 501, 494, 484, 500, 497, 498, 494, 492, 501, 494, 503, 495, 499, 500, 496, 492, 493, 488, 504, 493, 501, 495, 492, 500, 496, 498, 485, 500, 490, 499, 487, 506, 506, 502, 484, 501, 492, 496, 499, 493, 502, 499, 493, 499, 494, 491, 495, 493, 495, 494, 490, 504, 498, 490, 487, 493, 494, 500, 493, 495, 488, 501, 492, 496, 490, 507, 492, 495, 493, 506, 498, 494, 503, 491, 488, 490, 498, 497, 492, 497, 500, 494, 497, 493, 489, 500, 504, 494, 494, 504, 499, 487, 500, 490, 496, 495, 494, 494, 497, 499, 495, 494, 489, 502, 495, 495, 488, 497, 500, 495, 486, 504, 493, 500, 494, 496, 485, 501, 494, 493, 493, 478, 493, 496, 492, 499, 507, 491, 496, 492, 498, 494, 495, 496, 494, 497, 493, 486, 495, 490, 499, 483, 501, 496, 484, 497, 492, 499, 493, 495, 495, 493, 495, 494, 494, 496, 496, 495, 492, 493, 498, 494, 493, 495, 494, 495, 495, 499, 494, 494, 498, 493, 493, 494, 492, 497, 493, 499, 491, 492, 494, 494, 500, 494, 499, 494, 490, 494, 496, 494, 500, 495, 493, 496, 497, 492, 488, 497, 499, 497, 482, 507, 487, 496, 504, 493, 505, 494, 494, 493, 496, 496, 493, 493, 494, 494, 496, 491, 494, 495, 498, 485, 496, 482, 492, 500, 494, 496, 492, 494, 495, 494, 494, 496, 499, 482, 501, 479, 493, 492, 499, 497, 494, 497, 495, 493, 491, 496, 492, 493, 493, 498, 494, 488, 500, 491, 494, 491, 485, 497, 497, 494, 497, 494, 496, 487, 496, 500, 498, 495, 491, 496, 489, 499, 494, 495, 499, 492, 499, 494, 491, 497, 494, 493, 497, 491, 493, 490, 494, 493, 495, 494, 497, 500, 495, 499, 496, 497, 496, 493, 492, 494, 493, 493, 498, 498, 490, 494, 497, 497, 495, 495, 491, 494, 494, 497, 494, 494, 498, 494, 492, 495, 494, 492, 494, 495, 493, 498, 491, 499, 494, 497, 494, 494, 490, 500, 498, 497, 496, 496, 494, 494, 488, 491, 498, 496, 494, 487, 495, 499, 494, 496, 494, 500, 494, 497, 498, 488, 501, 495, 485, 496, 491, 496, 497, 495, 495, 491, 493]"
rest,"[501, 494, 494, 494, 487, 499, 498, 493, 496, 495, 494, 494, 497, 490, 487, 493, 496, 495, 498, 491, 499, 499, 498, 487, 496, 474, 496, 498, 495, 495, 497, 496, 495, 495, 494, 499, 490, 495, 495, 502, 493, 497, 488, 494, 498, 493, 487, 499, 494, 495, 494, 489, 501, 498, 494, 496, 495, 493, 499, 489, 495, 489, 498, 496, 494, 495, 494, 490, 493, 500, 493, 494, 494, 498, 496, 495, 495, 494, 495, 495, 495, 495, 495, 491, 496, 498, 495, 494, 493, 493, 498, 494, 491, 498, 493, 494, 491, 499, 493, 493, 494, 499, 495, 495, 494, 494, 495, 494, 495, 494, 495, 495, 494, 496, 495, 495, 495, 495, 495, 495, 495, 495, 494, 495, 494, 495, 494, 494, 494, 494, 494, 494, 493, 494, 494, 493, 493, 493, 493, 493, 493, 493, 494, 493, 493, 493, 493, 493, 493, 493, 493, 493, 494, 493, 493, 493, 493, 493, 493, 493, 493, 493, 493, 493, 494, 493, 493, 494, 493, 493, 493, 493, 494, 493, 493, 494, 493, 494, 493, 494, 494, 494, 493, 493, 493, 494, 494, 494, 494, 493, 493, 494, 493, 493, 494, 493, 494, 494, 494, 494, 494, 494, 493, 494, 494, 494, 494, 494, 494, 495, 494, 494, 494, 494, 494, 494, 494, 494, 494, 494, 494, 494, 494, 493, 494, 494, 494, 494, 494, 494, 495, 494, 494, 494, 494, 494, 494, 494, 494, 494, 494, 494, 494, 495, 494, 494, 494, 494, 494, 495, 494, 494, 494, 494, 494, 494, 495, 494, 494, 494, 494, 494, 494, 494, 494, 494, 494, 494, 494, 494, 494, 494, 494, 494, 494, 494, 494, 494, 494, 495, 495, 494, 494, 495, 494, 494, 494, 495, 494, 494, 494, 495, 495, 495, 495, 494, 495, 495, 495, 495, 494, 495, 495, 495, 494, 495, 495, 495, 495, 495, 495, 495, 495, 495, 495, 495, 495, 495, 495, 495, 495, 495, 494, 494, 495, 496, 495, 495, 495, 495, 495, 495, 495, 495, 495, 495, 495, 495, 495, 495, 495, 495, 495, 495, 495, 495, 495, 495, 495, 495, 495, 495, 495, 495, 495, 495, 495, 495, 495, 495, 495, 495, 495, 495, 496, 495, 495, 496, 495, 495, 496, 495, 495, 496, 495, 495, 495, 495, 495, 495, 496, 495, 495, 495, 495, 495, 495, 495, 495, 495, 496, 495, 495, 495, 496, 495, 495, 496, 495, 496, 495, 495, 495, 495, 495, 496, 495, 495, 496, 495, 495, 495, 495, 495, 495, 495, 495, 496, 495, 495, 496, 495, 495, 496, 495, 495, 495, 495, 495, 496, 495, 495, 495, 495, 495, 495, 495, 495, 495, 495, 495, 495, 495, 495, 495, 495, 495, 495, 495, 495, 495, 495, 495, 495, 495, 495, 495, 495, 495, 495, 495, 495, 495, 496, 495, 495, 495, 495, 495, 495, 495, 495, 495, 495, 496, 495, 495, 495, 496, 495, 495, 495, 495, 495, 495, 495, 495, 495, 495, 495, 495, 495, 495, 495, 495, 495, 495, 496, 495, 495, 495, 495, 495, 495, 495, 495, 495, 495, 495, 495, 495, 495, 495, 495, 495, 495, 495, 495, 495, 495, 495, 495, 494, 495, 495, 495, 495, 496, 495, 495, 495, 495, 495, 495, 495, 495, 495, 495, 495, 495, 495, 495, 495, 495, 495, 495, 495, 495, 495, 496, 495, 495, 495, 495, 495, 495, 495, 495, 495, 495, 496, 496, 495, 495, 496, 495, 495, 496, 496, 496, 495, 495, 496, 495, 496, 495]"
right,"[495, 496, 496, 495, 495, 495, 495, 496, 496, 496, 495, 495, 496, 495, 496, 496, 495, 496, 495, 495, 495, 495, 496, 495, 496, 495, 495, 496, 495, 495, 495, 495, 495, 495, 495, 495, 496, 495, 495, 495, 495, 495, 495, 495, 495, 495, 495, 495, 496, 496, 495, 495, 495, 495, 495, 495, 495, 495, 495, 495, 495, 495, 495, 495, 495, 495, 495, 495, 495, 495, 495, 495, 495, 495, 495, 495, 495, 495, 495, 494, 495, 495, 495, 495, 495, 495, 495, 495, 495, 495, 495, 495, 495, 495, 494, 495, 495, 495, 494, 495, 495, 494, 495, 495, 495, 495, 495, 495, 495, 494, 495, 495, 494, 495, 495, 495, 495, 495, 495, 495, 495, 495, 495, 494, 491, 495, 495, 496, 494, 488, 496, 495, 497, 481, 502, 497, 495, 498, 491, 495, 500, 498, 492, 493, 495, 492, 500, 493, 479, 494, 504, 504, 493, 498, 496, 497, 506, 498, 498, 497, 486, 504, 494, 498, 496, 491, 492, 506, 499, 504, 497, 494, 491, 496, 494, 496, 486, 499, 504, 502, 497, 470, 514, 495, 496, 499, 491, 492, 486, 501, 500, 504, 496, 498, 498, 488, 495, 506, 486, 502, 495, 501, 501, 488, 504, 494, 503, 493, 498, 491, 498, 496, 490, 501, 495, 495, 494, 475, 512, 497, 484, 499, 493, 500, 488, 493, 501, 469, 511, 502, 484, 487, 500, 483, 500, 490, 490, 492, 488, 482, 511, 495, 487, 503, 493, 497, 494, 489, 506, 494, 498, 495, 495, 482, 489, 497, 497, 502, 496, 491, 504, 493, 493, 481, 508, 496, 499, 497, 495, 493, 501, 493, 497, 495, 494, 497, 495, 496, 499, 502, 498, 500, 498, 495, 499, 499, 497, 494, 497, 500, 500, 480, 493, 504, 494, 497, 494, 496, 493, 505, 497, 492, 489, 503, 500, 495, 494, 497, 492, 495, 500, 498, 490, 501, 491, 495, 492, 500, 499, 497, 492, 496, 489, 498, 489, 495, 494, 492, 493, 494, 499, 492, 496, 497, 492, 492, 494, 499, 498, 492, 499, 494, 486, 504, 500, 496, 489, 493, 496, 489, 497, 495, 496, 495, 483, 500, 495, 498, 494, 494, 488, 494, 491, 494, 498, 494, 492, 497, 495, 493, 491, 491, 494, 495, 494, 494, 491, 492, 481, 500, 494, 496, 493, 488, 498, 496, 490, 492, 496, 493, 493, 496, 491, 491, 496, 493, 486, 500, 496, 493, 493, 484, 500, 489, 496, 495, 493, 495, 495, 493, 497, 492, 495, 491, 492, 494, 486, 497, 493, 487, 498, 496, 489, 495, 479, 494, 497, 492, 494, 490, 494, 493, 491, 493, 494, 492, 481, 497, 490, 498, 494, 494, 485, 499, 496, 490, 494, 487, 486, 509, 492, 494, 494, 493, 492, 495, 494, 488, 495, 491, 490, 497, 494, 491, 494, 500, 492, 491, 494, 493, 490, 493, 494, 486, 496, 497, 491, 494, 494, 491, 493, 485, 496, 497, 494, 478, 510, 495, 495, 494, 491, 492, 489, 497, 491, 501, 493, 494, 493, 487, 489, 491, 496, 494, 493, 492, 497, 496, 494, 486, 486, 501, 492, 491, 488, 493, 496, 489, 491, 491, 496, 493, 494, 488, 497, 493, 497, 494, 495, 477, 503, 493, 494, 485, 502, 495, 493, 487, 502, 495, 493, 490, 494, 493, 492, 494, 495, 484, 499, 495, 487, 490, 502, 497, 495, 492, 495, 495, 494, 491, 495, 489, 496, 492, 494, 487, 497, 489, 498, 495, 489, 496, 491, 491, 494, 495, 494]"
rest,"[495, 492, 495, 494, 490, 492, 496, 494, 491, 493, 495, 495, 494, 499, 495, 494, 494, 491, 494, 493, 498, 492, 494, 495, 497, 496, 494, 492, 494, 497, 493, 492, 493, 491, 488, 497, 494, 495, 495, 494, 492, 494, 494, 490, 498, 494, 486, 497, 499, 492, 494, 491, 489, 483, 508, 494, 495, 492, 492, 491, 495, 494, 492, 491, 493, 494, 499, 490, 488, 500, 496, 494, 494, 477, 506, 495, 487, 496, 490, 502, 491, 495, 488, 493, 496, 488, 497, 494, 494, 494, 490, 496, 502, 494, 498, 494, 493, 492, 500, 495, 494, 494, 494, 495, 494, 494, 494, 494, 494, 494, 494, 494, 495, 494, 494, 494, 494, 494, 494, 494, 494, 494, 494, 494, 494, 494, 494, 494, 494, 494, 494, 494, 494, 493, 494, 493, 493, 493, 493, 493, 493, 493, 492, 492, 492, 492, 492, 493, 492, 493, 492, 492, 493, 492, 493, 492, 492, 493, 492, 493, 492, 492, 493, 493, 492, 492, 492, 492, 492, 492, 492, 492, 493, 492, 492, 492, 492, 492, 492, 492, 492, 492, 492, 492, 493, 493, 492, 492, 493, 492, 493, 492, 492, 493, 492, 492, 493, 493, 492, 492, 492, 493, 493, 493, 493, 493, 493, 493, 492, 493, 492, 493, 492, 492, 492, 493, 493, 493, 493, 493, 493, 493, 493, 492, 493, 493, 493, 492, 493, 493, 493, 493, 493, 493, 492, 493, 493, 493, 493, 492, 493, 493, 493, 493, 494, 493, 493, 493, 493, 493, 494, 493, 493, 493, 493, 494, 494, 494, 494, 494, 494, 493, 494, 493, 493, 494, 494, 494, 493, 494, 493, 493, 494, 494, 493, 493, 493, 494, 494, 494, 494, 494, 493, 494, 494, 494, 493, 493, 494, 494, 493, 494, 494, 493, 494, 494, 494, 494, 494, 494, 494, 494, 494, 494, 494, 494, 494, 494, 494, 494, 494, 494, 494, 494, 493, 494, 494, 494, 494, 494, 494, 494, 494, 494, 493, 494, 494, 494, 494, 494, 494, 494, 495, 494, 494, 494, 494, 494, 494, 494, 495, 494, 494, 494, 494, 494, 494, 494, 494, 494, 494, 494, 494, 494, 494, 494, 494, 494, 494, 494, 494, 495, 494, 494, 494, 494, 494, 494, 494, 495, 494, 494, 494, 494, 494, 494, 494, 494, 495, 494, 494, 494, 494, 494, 494, 494, 494, 494, 494, 494, 495, 494, 494, 494, 494, 494, 495, 494, 495, 494, 494, 495, 494, 494, 494, 494, 494, 494, 494, 494, 494, 495, 494, 494, 494, 494, 494, 494, 494, 494, 494, 494, 495, 494, 494, 494, 494, 494, 494, 494, 494, 494, 494, 495, 494, 494, 494, 494, 494, 494, 495, 495, 494, 494, 495, 494, 494, 494, 494, 494, 494, 494, 494, 494, 494, 494, 494, 494, 494, 494, 494, 495, 494, 495, 495, 494, 494, 494, 494, 494, 494, 494, 495, 494, 494, 494, 494, 494, 494, 495, 494, 494, 494, 494, 494, 494, 494, 495, 495, 494, 495, 494, 494, 494, 494, 494, 494, 494, 494, 495, 494, 494, 494, 494, 495, 494, 494, 494, 494, 495, 494, 494, 494, 494, 495, 494, 494, 494, 494, 494, 495, 494, 494, 495, 494, 494, 494, 494, 494, 494, 494, 494, 494, 494, 494, 495, 494, 494, 494, 494, 494, 494, 495, 494, 495, 494, 494, 495, 495, 494, 495, 494, 494, 494, 494, 494, 494, 494, 494, 494, 494, 494, 495, 495, 494, 494, 494, 494, 494, 494, 494, 494, 494, 494, 494, 494, 494]"
right,"[494, 494, 494, 494, 494, 494, 494, 494, 494, 494, 494, 494, 495, 494, 494, 494, 494, 495, 494, 495, 494, 494, 494, 495, 494, 495, 494, 494, 494, 494, 494, 494, 494, 495, 495, 494, 494, 494, 494, 495, 494, 494, 495, 495, 495, 494, 495, 495, 494, 495, 495, 494, 495, 495, 495, 494, 494, 494, 495, 495, 494, 494, 495, 495, 495, 494, 494, 494, 495, 495, 495, 495, 494, 494, 494, 494, 495, 494, 495, 495, 495, 494, 495, 495, 494, 495, 495, 494, 494, 495, 495, 494, 494, 495, 495, 495, 495, 495, 495, 495, 495, 495, 495, 495, 495, 495, 495, 495, 495, 495, 494, 493, 495, 489, 495, 495, 495, 488, 502, 488, 499, 495, 497, 497, 494, 487, 495, 501, 493, 493, 495, 499, 500, 498, 496, 493, 487, 507, 499, 497, 494, 493, 496, 503, 493, 495, 503, 498, 490, 497, 499, 491, 507, 490, 499, 487, 498, 507, 495, 504, 493, 503, 495, 500, 491, 487, 495, 505, 499, 493, 501, 495, 502, 494, 502, 494, 488, 501, 495, 505, 497, 493, 497, 500, 494, 503, 496, 491, 500, 503, 499, 479, 506, 502, 498, 489, 502, 497, 482, 509, 502, 492, 494, 503, 494, 493, 500, 494, 494, 498, 494, 487, 508, 493, 497, 498, 501, 494, 491, 491, 501, 491, 497, 498, 484, 504, 492, 498, 496, 494, 494, 505, 498, 495, 492, 484, 509, 495, 501, 495, 494, 493, 500, 492, 496, 494, 512, 495, 487, 497, 496, 494, 498, 492, 493, 504, 492, 500, 480, 493, 503, 493, 492, 498, 495, 499, 494, 497, 494, 487, 497, 502, 496, 494, 488, 503, 496, 492, 495, 494, 498, 492, 499, 494, 492, 489, 496, 483, 505, 498, 497, 491, 492, 496, 498, 484, 498, 495, 499, 495, 490, 501, 492, 497, 498, 498, 495, 490, 491, 497, 496, 493, 495, 500, 495, 494, 494, 495, 498, 494, 490, 489, 495, 498, 498, 494, 499, 483, 500, 493, 499, 494, 495, 495, 492, 497, 498, 498, 489, 499, 493, 494, 488, 489, 502, 497, 494, 490, 496, 494, 503, 494, 494, 494, 487, 497, 491, 504, 485, 501, 497, 494, 495, 494, 499, 491, 496, 495, 493, 494, 495, 487, 500, 494, 493, 499, 495, 494, 487, 495, 492, 497, 496, 495, 483, 496, 497, 496, 495, 493, 494, 497, 495, 487, 500, 495, 492, 493, 496, 492, 496, 494, 495, 494, 493, 495, 496, 491, 495, 494, 492, 498, 488, 491, 501, 494, 494, 494, 493, 494, 496, 488, 494, 495, 494, 493, 494, 494, 494, 490, 493, 490, 497, 494, 494, 498, 493, 494, 492, 495, 494, 490, 498, 495, 494, 493, 494, 494, 495, 492, 493, 492, 494, 495, 491, 496, 494, 491, 493, 494, 496, 494, 493, 494, 493, 494, 494, 493, 497, 493, 494, 495, 491, 493, 496, 486, 498, 498, 494, 493, 491, 494, 496, 494, 494, 495, 494, 494, 494, 495, 494, 489, 494, 493, 495, 489, 496, 496, 497, 495, 494, 494, 497, 490, 498, 494, 494, 496, 497, 494, 493, 496, 494, 489, 494, 488, 494, 494, 495, 494, 493, 487, 495, 497, 494, 494, 494, 487, 499, 495, 494, 494, 490, 493, 494, 494, 493, 490, 496, 496, 494, 493, 487, 497, 492, 484, 498, 491, 492, 498, 496, 494, 492, 492, 494, 495, 487, 499, 495, 494, 494, 494, 491, 494, 493, 494, 498, 495, 494, 489, 497, 494, 491, 496, 495, 492]"
rest,"[494, 493, 494, 494, 495, 495, 485, 497, 495, 496, 494, 487, 497, 492, 498, 494, 490, 497, 494, 494, 493, 494, 493, 487, 494, 497, 496, 493, 494, 496, 495, 493, 494, 495, 494, 491, 484, 500, 494, 494, 494, 494, 494, 494, 498, 488, 497, 491, 497, 493, 500, 494, 494, 494, 495, 495, 492, 495, 495, 494, 492, 492, 494, 496, 496, 493, 497, 494, 494, 493, 495, 494, 489, 496, 491, 488, 495, 499, 495, 494, 489, 497, 493, 493, 495, 471, 491, 496, 496, 494, 496, 497, 478, 496, 506, 494, 493, 491, 488, 513, 495, 494, 493, 494, 495, 492, 497, 494, 494, 494, 494, 495, 495, 494, 488, 503, 495, 495, 494, 494, 495, 495, 495, 494, 494, 495, 494, 495, 495, 494, 494, 494, 494, 494, 494, 493, 494, 493, 493, 493, 493, 492, 493, 492, 492, 492, 492, 492, 492, 492, 492, 492, 492, 492, 491, 492, 492, 492, 492, 492, 492, 492, 493, 492, 492, 493, 492, 492, 493, 493, 493, 493, 493, 493, 493, 493, 493, 493, 493, 493, 493, 494, 493, 493, 493, 493, 493, 494, 493, 493, 494, 493, 493, 493, 494, 493, 493, 494, 493, 493, 494, 493, 494, 493, 493, 493, 493, 493, 494, 493, 494, 494, 494, 494, 494, 494, 494, 494, 494, 494, 494, 494, 494, 494, 494, 494, 494, 494, 494, 494, 494, 494, 494, 494, 495, 494, 494, 495, 494, 494, 494, 494, 495, 494, 494, 495, 494, 494, 494, 494, 494, 494, 494, 494, 494, 494, 494, 494, 495, 494, 494, 495, 494, 494, 494, 494, 494, 494, 494, 495, 494, 494, 494, 494, 495, 494, 494, 494, 494, 494, 494, 494, 494, 494, 494, 494, 494, 494, 494, 495, 495, 494, 494, 495, 494, 494, 494, 494, 495, 494, 494, 494, 494, 495, 494, 494, 495, 495, 494, 494, 494, 494, 495, 494, 494, 495, 495, 494, 494, 494, 494, 494, 494, 495, 494, 494, 494, 495, 494, 494, 495, 494, 495, 494, 494, 494, 494, 494, 494, 495, 495, 495, 494, 494, 495, 495, 495, 495, 494, 495, 494, 495, 494, 494, 494, 494, 495, 494, 494, 494, 494, 495, 494, 494, 494, 494, 494, 494, 495, 494, 494, 494, 495, 494, 494, 494, 494, 494, 494, 494, 494, 495, 494, 494, 494, 494, 494, 494, 495, 494, 494, 494, 494, 495, 494, 494, 494, 494, 494, 494, 495, 494, 495, 494, 494, 494, 494, 495, 494, 494, 494, 494, 495, 494, 494, 495, 494, 495, 494, 494, 494, 494, 494, 494, 494, 495, 494, 494, 494, 495, 494, 494, 495, 495, 495, 494, 495, 495, 494, 495, 494, 495, 494, 495, 495, 494, 495, 494, 495, 494, 494, 495, 495, 495, 495, 494, 494, 495, 495, 494, 494, 494, 495, 494, 495, 495, 494, 494, 494, 495, 495, 495, 495, 495, 495, 495, 495, 495, 495, 495, 495, 495, 495, 495, 495, 494, 495, 494, 494, 495, 495, 495, 495, 495, 495, 494, 495, 495, 495, 494, 495, 495, 494, 495, 495, 494, 494, 495, 495, 495, 495, 495, 495, 495, 495, 494, 495, 494, 495, 494, 495, 495, 494, 495, 495, 495, 495, 495, 495, 494, 494, 495, 494, 495, 494, 495, 495, 495, 494, 495, 495, 494, 495, 495, 495, 495, 494, 494, 494, 495, 495, 495, 495, 494, 494, 494, 494, 495, 494, 494, 494, 495, 494, 495, 494, 495, 495, 494, 494, 495, 495, 495, 495, 495, 494, 494]"
right,"[495, 495, 495, 495, 494, 494, 494, 494, 494, 494, 494, 494, 494, 494, 495, 495, 494, 494, 494, 495, 494, 494, 494, 494, 494, 494, 494, 494, 494, 494, 494, 494, 494, 494, 494, 494, 494, 494, 494, 494, 494, 494, 494, 494, 494, 494, 494, 494, 494, 494, 494, 494, 494, 494, 494, 494, 494, 494, 494, 494, 494, 494, 494, 494, 494, 494, 494, 494, 494, 494, 494, 494, 493, 494, 494, 494, 494, 494, 494, 494, 494, 494, 494, 494, 494, 494, 494, 494, 494, 494, 494, 494, 494, 495, 494, 494, 494, 494, 494, 494, 494, 494, 494, 494, 494, 494, 494, 494, 494, 490, 481, 500, 494, 494, 496, 484, 505, 492, 495, 488, 505, 499, 494, 498, 491, 495, 494, 503, 498, 492, 494, 494, 495, 499, 487, 485, 512, 493, 499, 490, 483, 486, 522, 498, 481, 505, 507, 500, 500, 501, 489, 484, 485, 506, 507, 501, 498, 494, 486, 499, 492, 487, 475, 530, 506, 500, 500, 474, 506, 493, 501, 507, 494, 505, 496, 490, 501, 491, 499, 491, 495, 508, 494, 506, 485, 509, 493, 511, 496, 484, 508, 484, 504, 498, 500, 490, 489, 511, 493, 481, 515, 498, 483, 498, 494, 490, 498, 503, 494, 493, 501, 494, 499, 485, 507, 493, 494, 495, 503, 502, 471, 514, 503, 498, 484, 510, 492, 494, 494, 494, 495, 501, 492, 496, 489, 502, 495, 493, 509, 502, 490, 492, 483, 502, 496, 490, 507, 487, 493, 497, 499, 501, 499, 473, 514, 497, 497, 492, 513, 498, 492, 497, 486, 520, 498, 499, 489, 509, 486, 500, 487, 492, 503, 479, 510, 495, 501, 494, 501, 492, 500, 483, 509, 491, 501, 491, 490, 497, 511, 495, 495, 495, 494, 494, 494, 491, 492, 493, 501, 492, 501, 490, 501, 496, 495, 470, 511, 497, 499, 495, 500, 488, 497, 471, 504, 504, 500, 497, 497, 494, 492, 498, 493, 494, 498, 494, 492, 497, 486, 501, 498, 500, 500, 489, 497, 488, 498, 496, 496, 490, 482, 494, 499, 498, 492, 476, 489, 490, 503, 484, 514, 496, 487, 498, 490, 499, 497, 485, 499, 495, 496, 495, 484, 498, 482, 506, 490, 499, 494, 488, 492, 493, 479, 509, 494, 500, 503, 495, 493, 497, 499, 493, 482, 491, 495, 494, 497, 488, 487, 501, 497, 496, 499, 500, 495, 499, 495, 493, 494, 493, 494, 493, 492, 502, 485, 494, 495, 495, 496, 489, 498, 495, 497, 496, 498, 496, 492, 491, 499, 486, 500, 495, 490, 505, 494, 486, 491, 499, 492, 472, 507, 495, 494, 494, 496, 496, 491, 495, 495, 492, 491, 495, 494, 501, 493, 485, 496, 497, 488, 497, 490, 496, 496, 495, 488, 498, 494, 499, 494, 487, 492, 504, 494, 492, 490, 496, 485, 494, 493, 495, 495, 504, 496, 495, 492, 493, 497, 495, 495, 492, 497, 494, 483, 497, 500, 495, 491, 501, 497, 492, 496, 490, 498, 488, 502, 497, 496, 494, 493, 495, 496, 486, 496, 500, 488, 499, 488, 496, 494, 493, 494, 495, 488, 500, 497, 494, 490, 492, 501, 495, 496, 494, 486, 499, 497, 493, 495, 479, 501, 494, 500, 479, 506, 495, 494, 485, 501, 499, 496, 491, 487, 502, 491, 495, 497, 492, 487, 502, 497, 499, 491, 494, 494, 492, 497, 503, 494, 496, 486, 494, 497, 497, 499, 495, 494, 497, 493, 490, 493, 495, 492, 497, 494, 492, 496, 493, 494]"
