,label,input
1,right,"[493, 494, 495, 494, 493, 495, 496, 494, 494, 494, 495, 493, 494, 493, 494, 494, 494, 494, 495, 494, 494, 495, 494, 493, 493, 494, 494, 495, 495, 494, 494, 494, 494, 493, 493, 494, 495, 494, 494, 494, 494, 494, 494, 494, 494, 493, 495, 495, 494, 493, 494, 494, 495, 494, 494, 494, 494, 494, 493, 494, 494, 494, 493, 494, 494, 494, 494, 494, 493, 495, 495, 493, 494, 494, 494, 494, 494, 494, 493, 495, 494, 494, 494, 494, 494, 494, 494, 494, 494, 495, 495, 495, 494, 494, 494, 494, 494, 494, 494, 494, 494, 494, 494, 493, 494, 495, 494, 494, 494, 494, 494, 494, 494, 495, 494, 494, 494, 495, 495, 494, 494, 494, 493, 494, 495, 494, 494, 495, 495, 494, 495, 495, 494, 493, 495, 494, 494, 495, 494, 494, 494, 494, 495, 495, 494, 494, 494, 496, 494, 494, 495, 494, 494, 494, 494, 494, 495, 494, 494, 496, 494, 494, 495, 494, 494, 494, 494, 494, 494, 494, 494, 494, 494, 494, 494, 494, 494, 494, 495, 494, 494, 494, 493, 492, 495, 496, 494, 494, 494, 495, 495, 494, 494, 494, 494, 494, 494, 495, 494, 494, 494, 494, 494, 494, 494, 494, 494, 494, 494, 494, 494, 493, 493, 495, 496, 495, 494, 495, 494, 494, 494, 497, 494, 495, 494, 494, 495, 496, 493, 494, 494, 493, 497, 495, 494, 492, 496, 495, 494, 495, 495, 496, 496, 496, 494, 497, 494, 496, 495, 495, 492, 493, 496, 495, 495, 496, 496, 493, 498, 495, 493, 494, 495, 494, 496, 494, 495, 495, 498, 488, 497, 495, 493, 492, 496, 494, 495, 495, 500, 493, 490, 498, 495, 491, 495, 494, 489, 497, 494, 498, 494, 493, 506, 490, 495, 499, 493, 507, 489, 494, 491, 500, 501, 494, 494, 497, 496, 494, 504, 492, 496, 495, 492, 501, 492, 497, 494, 499, 490, 486, 497, 498, 494, 496, 494, 492, 493, 496, 494, 492, 492, 491, 493, 497, 500, 502, 493, 499, 500, 493, 495, 495, 492, 492, 495, 497, 490, 495, 502, 492, 492, 491, 492, 498, 494, 495, 494, 487, 491, 503, 493, 492, 489, 493, 488, 492, 493, 496, 485, 496, 490, 491, 493, 495, 497, 493, 490, 501, 490, 496, 496, 493, 494, 488, 491, 493, 492, 497, 500, 502, 492, 495, 498, 497, 494, 494, 494, 496, 485, 497, 498, 498, 496, 490, 504, 495, 491, 497, 494, 495, 487, 497, 494, 494, 498, 491, 492, 488, 498, 498, 498, 484, 493, 492, 503, 491, 489, 498, 503, 489, 494, 494, 495, 495, 496, 498, 497, 503, 489, 494, 495, 494, 495, 498, 499, 498, 492, 500, 496, 497, 501, 496, 494, 496, 491, 494, 494, 499, 493, 496, 503, 494, 495, 493, 494, 497, 493, 498, 494, 490, 494, 501, 494, 494, 495, 493, 498, 497, 495, 493, 494, 494, 494, 499, 494, 493, 496, 491, 494, 497, 492, 494, 493, 494, 498, 494, 491, 493, 497, 495, 496, 496, 494, 492, 494, 494, 497, 496, 495, 494, 496, 497, 492, 494, 496, 497, 494, 494, 494, 498, 494, 493, 493, 497, 495, 491, 494, 498, 497, 492, 492, 498, 494, 495, 498, 494, 494, 496, 494, 491, 494, 493, 497, 494, 496, 495, 499, 496, 494, 494, 499, 496, 499, 493, 494, 494, 496, 495, 494, 496, 494, 496, 498, 496, 494, 496, 497, 494, 495, 498, 495, 498, 496, 494, 496, 497, 496]"
2,rest,"[494, 496, 497, 495, 497, 497, 493, 494, 498, 494, 495, 496, 496, 493, 496, 498, 492, 495, 497, 492, 494, 494, 497, 494, 497, 498, 493, 494, 495, 494, 492, 502, 492, 495, 496, 497, 494, 494, 497, 494, 496, 495, 496, 494, 492, 493, 498, 495, 490, 501, 494, 491, 496, 495, 495, 494, 496, 495, 493, 495, 495, 495, 497, 494, 493, 494, 496, 492, 495, 494, 493, 498, 497, 493, 494, 496, 494, 495, 498, 495, 494, 494, 496, 500, 495, 496, 497, 494, 494, 494, 496, 494, 492, 495, 498, 494, 492, 494, 491, 494, 498, 496, 494, 496, 494, 495, 494, 494, 495, 496, 495, 495, 494, 493, 495, 493, 496, 497, 494, 497, 494, 496, 496, 495, 494, 495, 496, 494, 494, 496, 494, 493, 493, 497, 495, 496, 496, 494, 495, 494, 494, 494, 494, 495, 494, 495, 496, 494, 494, 497, 494, 496, 495, 493, 495, 495, 494, 495, 494, 494, 496, 496, 494, 493, 494, 494, 499, 495, 493, 494, 494, 494, 493, 495, 494, 494, 494, 497, 494, 494, 493, 493, 493, 492, 494, 495, 496, 496, 494, 494, 494, 494, 495, 495, 494, 494, 494, 495, 493, 492, 495, 493, 496, 494, 494, 494, 495, 494, 493, 493, 494, 494, 495, 495, 494, 494, 496, 494, 493, 494, 493, 495, 495, 494, 494, 494, 494, 493, 494, 494, 494, 495, 494, 494, 493, 491, 492, 493, 495, 493, 495, 494, 493, 493, 494, 494, 494, 494, 494, 493, 494, 490, 494, 494, 495, 494, 494, 493, 496, 492, 493, 495, 493, 494, 494, 494, 494, 492, 494, 493, 494, 494, 493, 494, 494, 493, 494, 494, 493, 493, 494, 492, 494, 494, 491, 493, 494, 494, 492, 495, 494, 494, 493, 495, 494, 493, 493, 492, 494, 494, 493, 492, 493, 494, 492, 494, 494, 494, 494, 494, 492, 494, 493, 494, 494, 494, 492, 494, 493, 493, 493, 495, 493, 493, 494, 494, 494, 494, 494, 493, 494, 494, 494, 494, 494, 492, 491, 498, 494, 494, 493, 494, 494, 494, 493, 494, 494, 494, 494, 495, 493, 492, 494, 494, 493, 494, 492, 494, 494, 494, 494, 494, 494, 494, 494, 493, 495, 493, 492, 493, 493, 494, 494, 494, 493, 493, 495, 494, 494, 494, 494, 494, 494, 494, 493, 494, 494, 494, 494, 491, 494, 495, 495, 495, 493, 494, 494, 494, 493, 494, 494, 495, 494, 492, 493, 493, 492, 495, 494, 494, 494, 496, 494, 494, 494, 494, 493, 495, 494, 494, 494, 492, 492, 496, 495, 494, 494, 494, 493, 493, 494, 494, 494, 494, 494, 492, 495, 495, 494, 494, 494, 493, 493, 494, 494, 496, 495, 493, 493, 494, 494, 494, 495, 494, 494, 495, 494, 494, 495, 493, 492, 494, 495, 494, 494, 493, 494, 495, 494, 496, 494, 493, 494, 494, 494, 494, 493, 493, 494, 495, 494, 495, 494, 494, 494, 493, 494, 494, 494, 494, 493, 495, 494, 494, 494, 494, 494, 494, 494, 493, 494, 495, 494, 494, 495, 494, 494, 495, 494, 493, 494, 494, 494, 494, 495, 493, 495, 494, 494, 494, 495, 493, 494, 495, 495, 494, 494, 493, 494, 494, 495, 494, 493, 494, 494, 494, 496, 494, 493, 494, 494, 494, 495, 494, 493, 495, 495, 493, 494, 494, 494, 493, 494, 494, 495, 494, 494, 493, 494, 495, 494, 494, 494, 493, 495, 495, 494, 495, 494, 494, 494, 494, 494, 494, 495, 493, 493]"
3,right,"[494, 494, 494, 494, 494, 493, 494, 495, 494, 493, 494, 494, 494, 494, 494, 494, 495, 494, 494, 494, 495, 494, 494, 494, 494, 495, 495, 494, 493, 495, 495, 494, 494, 494, 493, 494, 494, 494, 495, 494, 494, 494, 494, 495, 494, 494, 494, 494, 494, 494, 493, 494, 494, 494, 495, 495, 493, 494, 494, 494, 494, 494, 495, 494, 494, 494, 493, 494, 494, 495, 494, 495, 494, 493, 494, 494, 494, 494, 494, 493, 495, 494, 494, 495, 494, 494, 494, 494, 493, 492, 494, 495, 494, 495, 494, 494, 494, 494, 495, 493, 494, 494, 494, 495, 494, 494, 495, 494, 494, 495, 493, 494, 495, 494, 494, 494, 494, 495, 494, 494, 495, 494, 495, 494, 493, 494, 494, 495, 494, 494, 493, 496, 494, 494, 495, 495, 495, 494, 494, 493, 494, 495, 494, 494, 494, 493, 494, 493, 495, 494, 494, 495, 494, 494, 494, 494, 494, 495, 494, 495, 495, 493, 494, 495, 495, 494, 494, 495, 494, 494, 494, 494, 494, 495, 493, 495, 494, 495, 494, 494, 495, 494, 494, 496, 495, 494, 494, 494, 494, 496, 494, 494, 495, 495, 494, 495, 494, 494, 493, 496, 494, 494, 494, 493, 495, 495, 495, 495, 494, 495, 494, 495, 494, 495, 494, 494, 494, 494, 495, 494, 494, 495, 496, 494, 496, 495, 497, 494, 498, 495, 494, 494, 494, 492, 494, 494, 494, 495, 496, 494, 494, 495, 495, 497, 495, 495, 494, 495, 489, 496, 493, 496, 494, 495, 495, 498, 494, 496, 497, 494, 496, 499, 493, 494, 496, 491, 493, 490, 496, 497, 496, 492, 500, 498, 486, 499, 496, 495, 497, 500, 495, 492, 499, 490, 489, 495, 490, 505, 492, 492, 495, 492, 493, 495, 501, 505, 497, 490, 502, 482, 492, 499, 496, 495, 489, 508, 492, 491, 490, 494, 493, 501, 493, 492, 492, 492, 505, 493, 491, 498, 494, 491, 505, 490, 497, 490, 490, 492, 491, 497, 494, 496, 492, 497, 484, 490, 492, 496, 491, 497, 491, 493, 497, 501, 490, 498, 500, 493, 494, 492, 498, 499, 490, 494, 490, 487, 496, 497, 488, 489, 502, 495, 490, 490, 495, 494, 494, 491, 496, 501, 499, 494, 493, 495, 495, 497, 499, 493, 499, 496, 492, 494, 496, 490, 496, 494, 492, 496, 493, 491, 503, 497, 493, 501, 487, 494, 495, 498, 494, 494, 493, 493, 500, 494, 490, 496, 494, 498, 490, 492, 494, 498, 490, 506, 494, 496, 494, 494, 494, 494, 494, 493, 500, 496, 490, 495, 497, 496, 497, 494, 494, 492, 492, 491, 496, 494, 497, 493, 495, 497, 493, 498, 489, 505, 496, 499, 493, 491, 492, 495, 496, 496, 498, 495, 491, 502, 494, 498, 496, 497, 493, 495, 495, 499, 496, 484, 499, 494, 496, 491, 493, 498, 494, 494, 494, 494, 504, 493, 494, 495, 489, 498, 495, 493, 494, 491, 503, 493, 488, 502, 494, 491, 487, 497, 498, 493, 498, 493, 486, 507, 498, 490, 494, 490, 492, 494, 495, 492, 494, 496, 497, 496, 490, 494, 498, 494, 495, 499, 494, 497, 489, 490, 497, 498, 494, 497, 494, 497, 500, 489, 492, 499, 492, 498, 494, 494, 495, 493, 494, 494, 500, 491, 492, 492, 497, 499, 495, 494, 494, 492, 494, 491, 498, 494, 492, 492, 494, 501, 496, 496, 491, 496, 495, 496, 495, 493, 496, 496, 497, 500, 494, 492, 491, 501, 497, 495, 495]"
4,rest,"[494, 493, 492, 494, 490, 492, 502, 500, 492, 492, 495, 498, 496, 503, 494, 493, 497, 494, 493, 495, 494, 493, 499, 495, 494, 494, 495, 493, 496, 497, 498, 495, 497, 494, 496, 497, 494, 494, 494, 496, 498, 497, 495, 497, 496, 496, 493, 495, 495, 496, 496, 497, 493, 493, 494, 495, 495, 496, 492, 494, 496, 497, 494, 496, 497, 494, 494, 496, 494, 495, 496, 495, 494, 495, 492, 497, 495, 492, 496, 495, 498, 495, 494, 495, 495, 495, 494, 494, 494, 494, 495, 492, 496, 495, 495, 493, 498, 495, 494, 494, 494, 496, 495, 494, 494, 495, 493, 495, 495, 495, 494, 494, 493, 494, 493, 494, 494, 495, 496, 494, 494, 494, 494, 494, 494, 494, 494, 494, 494, 493, 493, 496, 494, 494, 495, 494, 494, 494, 494, 494, 494, 493, 492, 495, 494, 494, 495, 494, 493, 494, 496, 494, 495, 495, 494, 494, 494, 490, 493, 497, 495, 494, 495, 492, 494, 494, 494, 494, 494, 494, 494, 491, 493, 495, 494, 494, 495, 494, 494, 493, 492, 494, 494, 494, 492, 493, 494, 496, 495, 494, 494, 495, 494, 493, 494, 495, 495, 494, 494, 493, 493, 494, 493, 489, 494, 494, 494, 495, 495, 494, 494, 494, 494, 494, 494, 494, 494, 494, 494, 494, 494, 492, 497, 494, 494, 494, 494, 494, 494, 494, 494, 494, 494, 494, 492, 494, 495, 495, 493, 493, 493, 493, 494, 493, 494, 494, 494, 495, 494, 496, 492, 493, 494, 494, 494, 494, 494, 494, 493, 494, 494, 494, 492, 496, 494, 494, 495, 493, 493, 494, 494, 494, 494, 494, 494, 494, 494, 494, 493, 493, 494, 494, 493, 493, 497, 493, 493, 494, 494, 493, 493, 494, 494, 494, 494, 494, 493, 494, 493, 492, 494, 494, 495, 494, 493, 493, 494, 494, 493, 494, 495, 495, 495, 494, 494, 493, 495, 492, 493, 495, 494, 495, 495, 496, 493, 494, 494, 492, 494, 498, 493, 492, 494, 494, 494, 495, 494, 494, 495, 495, 493, 494, 493, 495, 495, 494, 494, 494, 494, 494, 494, 495, 493, 494, 495, 495, 494, 494, 494, 494, 494, 494, 496, 494, 494, 494, 493, 494, 492, 494, 496, 495, 494, 494, 495, 493, 493, 496, 494, 494, 495, 492, 490, 496, 497, 495, 494, 494, 494, 493, 494, 494, 495, 495, 495, 494, 494, 495, 492, 491, 494, 496, 496, 494, 495, 494, 493, 491, 495, 495, 495, 494, 494, 495, 493, 494, 494, 495, 496, 494, 493, 494, 495, 494, 495, 494, 491, 494, 496, 494, 494, 495, 494, 494, 494, 494, 493, 494, 494, 494, 494, 495, 495, 495, 494, 493, 494, 495, 494, 494, 492, 495, 494, 494, 495, 495, 494, 495, 493, 492, 495, 495, 495, 495, 494, 494, 494, 494, 493, 494, 494, 495, 494, 495, 494, 494, 495, 494, 494, 494, 494, 494, 495, 495, 494, 494, 494, 494, 495, 494, 494, 494, 494, 493, 494, 495, 495, 495, 491, 494, 495, 495, 495, 494, 494, 495, 494, 494, 494, 493, 494, 495, 495, 494, 495, 493, 494, 494, 495, 494, 494, 494, 494, 494, 495, 494, 494, 494, 494, 494, 495, 493, 493, 495, 496, 494, 494, 494, 493, 495, 494, 494, 494, 495, 493, 493, 494, 495, 495, 495, 494, 493, 493, 494, 495, 495, 494, 494, 494, 494, 494, 493, 494, 495, 494, 494, 494, 493, 494, 495, 495, 494, 494, 493, 495, 494]"
5,right,"[494, 495, 494, 493, 494, 494, 495, 494, 494, 494, 494, 494, 495, 494, 494, 494, 494, 494, 494, 494, 493, 494, 495, 494, 494, 494, 494, 494, 493, 495, 496, 495, 494, 493, 494, 495, 494, 494, 494, 493, 493, 495, 494, 494, 494, 494, 494, 492, 495, 495, 495, 494, 494, 494, 495, 494, 494, 494, 493, 494, 495, 495, 493, 494, 495, 494, 494, 494, 494, 494, 494, 494, 494, 494, 494, 494, 494, 494, 493, 494, 496, 494, 495, 494, 493, 494, 495, 494, 494, 494, 494, 494, 494, 494, 493, 493, 492, 493, 494, 495, 494, 494, 493, 493, 494, 494, 494, 494, 494, 493, 492, 494, 494, 494, 494, 494, 493, 494, 495, 493, 493, 494, 495, 494, 494, 494, 494, 494, 494, 493, 494, 494, 493, 494, 495, 495, 494, 494, 494, 494, 493, 494, 494, 494, 494, 494, 494, 494, 493, 494, 494, 494, 494, 494, 494, 494, 494, 494, 494, 494, 494, 494, 494, 493, 494, 495, 495, 494, 494, 495, 494, 493, 494, 494, 494, 494, 494, 494, 495, 494, 495, 494, 494, 493, 494, 495, 494, 494, 493, 495, 494, 497, 493, 494, 496, 497, 494, 493, 495, 494, 494, 495, 495, 496, 495, 495, 495, 494, 494, 494, 494, 494, 495, 493, 495, 494, 493, 494, 495, 493, 495, 494, 494, 494, 494, 494, 497, 493, 494, 494, 492, 494, 496, 492, 494, 494, 493, 496, 495, 495, 494, 493, 496, 492, 493, 495, 490, 494, 494, 493, 493, 495, 494, 492, 494, 491, 496, 495, 495, 492, 495, 489, 494, 494, 495, 490, 495, 492, 491, 495, 492, 492, 498, 494, 495, 490, 497, 493, 493, 491, 494, 496, 497, 493, 493, 490, 495, 496, 494, 494, 494, 499, 495, 500, 497, 493, 497, 495, 490, 498, 497, 495, 498, 494, 495, 494, 494, 495, 494, 494, 492, 501, 491, 496, 493, 491, 495, 494, 502, 494, 494, 495, 488, 498, 490, 492, 493, 491, 497, 493, 494, 493, 493, 495, 499, 493, 498, 486, 493, 493, 487, 499, 496, 492, 493, 494, 497, 495, 493, 494, 493, 491, 495, 496, 494, 494, 500, 488, 497, 496, 495, 493, 505, 489, 494, 491, 500, 495, 497, 493, 489, 494, 494, 492, 493, 494, 495, 488, 492, 488, 496, 491, 498, 498, 492, 497, 483, 492, 496, 497, 495, 491, 498, 499, 493, 492, 493, 498, 492, 495, 496, 493, 487, 495, 491, 494, 496, 495, 502, 495, 497, 491, 497, 496, 496, 490, 492, 498, 487, 488, 490, 501, 491, 496, 495, 494, 496, 498, 491, 494, 493, 492, 496, 491, 491, 496, 498, 496, 494, 498, 491, 498, 491, 495, 495, 494, 492, 492, 492, 501, 496, 496, 483, 499, 496, 497, 493, 494, 494, 496, 493, 496, 494, 496, 493, 490, 499, 498, 494, 501, 498, 492, 497, 494, 498, 493, 496, 495, 494, 496, 494, 495, 497, 499, 495, 491, 495, 497, 493, 492, 496, 495, 497, 498, 493, 495, 494, 495, 496, 496, 495, 494, 497, 492, 494, 494, 494, 494, 499, 494, 494, 494, 497, 496, 494, 495, 496, 494, 495, 494, 495, 494, 495, 494, 496, 495, 493, 495, 495, 494, 495, 495, 494, 497, 495, 495, 495, 494, 494, 494, 494, 494, 496, 494, 496, 494, 494, 495, 494, 495, 496, 494, 494, 496, 495, 495, 495, 494, 494, 495, 495, 495, 495, 494, 494, 495, 495, 494, 496, 494, 496, 495, 495, 494, 494, 495, 494]"
6,rest,"[494, 494, 494, 494, 495, 495, 494, 494, 496, 494, 494, 494, 495, 495, 493, 494, 495, 493, 494, 494, 494, 494, 494, 495, 494, 494, 494, 494, 494, 494, 494, 494, 495, 494, 495, 494, 494, 496, 495, 493, 494, 494, 494, 494, 494, 494, 493, 495, 495, 494, 494, 493, 493, 496, 493, 493, 494, 494, 494, 494, 494, 494, 494, 494, 491, 494, 495, 493, 494, 494, 493, 494, 495, 494, 494, 494, 494, 493, 494, 495, 494, 494, 494, 493, 493, 495, 494, 494, 494, 494, 494, 493, 492, 494, 495, 494, 494, 494, 494, 494, 494, 494, 493, 493, 493, 493, 494, 493, 494, 494, 493, 492, 494, 495, 495, 493, 494, 494, 494, 494, 494, 494, 493, 493, 494, 494, 494, 494, 493, 494, 494, 493, 493, 494, 492, 491, 494, 494, 492, 494, 495, 493, 493, 494, 493, 494, 494, 494, 494, 494, 494, 494, 493, 494, 494, 494, 493, 491, 494, 493, 493, 494, 493, 494, 493, 493, 493, 493, 496, 494, 493, 494, 493, 493, 494, 494, 494, 495, 493, 493, 494, 494, 493, 494, 493, 494, 493, 494, 494, 493, 493, 494, 494, 493, 493, 493, 495, 495, 493, 492, 494, 494, 494, 494, 494, 492, 493, 494, 492, 493, 493, 494, 494, 495, 494, 494, 493, 494, 493, 494, 492, 492, 494, 493, 493, 496, 494, 494, 492, 493, 493, 493, 494, 493, 493, 493, 493, 494, 494, 494, 494, 492, 492, 493, 494, 494, 493, 494, 494, 493, 491, 495, 495, 493, 495, 494, 494, 493, 491, 493, 495, 495, 494, 494, 494, 492, 494, 494, 494, 494, 495, 494, 493, 493, 496, 494, 494, 494, 494, 494, 494, 494, 494, 494, 495, 495, 494, 494, 494, 493, 493, 493, 494, 495, 494, 494, 494, 493, 494, 494, 494, 493, 494, 494, 494, 494, 495, 492, 493, 496, 494, 494, 496, 494, 494, 494, 494, 495, 495, 495, 493, 494, 494, 494, 492, 495, 494, 494, 494, 494, 493, 495, 494, 493, 494, 495, 494, 494, 494, 494, 494, 494, 495, 494, 494, 493, 494, 495, 495, 494, 494, 491, 493, 494, 495, 494, 494, 494, 494, 494, 495, 494, 494, 492, 494, 494, 494, 494, 494, 494, 494, 493, 494, 494, 494, 494, 494, 494, 494, 493, 494, 493, 495, 494, 493, 494, 494, 494, 493, 495, 493, 494, 493, 493, 494, 494, 493, 493, 494, 494, 494, 494, 494, 493, 495, 494, 494, 493, 494, 495, 493, 493, 495, 494, 494, 494, 493, 494, 495, 493, 493, 494, 494, 495, 494, 493, 493, 493, 495, 494, 494, 494, 490, 494, 495, 494, 494, 494, 494, 494, 494, 493, 493, 494, 494, 494, 494, 493, 494, 494, 494, 494, 495, 494, 493, 493, 494, 494, 494, 495, 494, 495, 493, 492, 493, 494, 494, 494, 494, 494, 494, 493, 494, 493, 494, 494, 494, 494, 494, 494, 493, 494, 494, 493, 494, 494, 494, 493, 495, 493, 494, 494, 493, 494, 494, 493, 494, 494, 494, 494, 494, 494, 494, 493, 493, 495, 494, 494, 493, 494, 493, 494, 493, 493, 494, 494, 495, 494, 493, 494, 495, 494, 494, 494, 493, 493, 494, 494, 494, 494, 494, 493, 493, 495, 494, 494, 494, 494, 494, 495, 494, 494, 494, 493, 494, 495, 494, 493, 493, 494, 494, 495, 494, 495, 493, 494, 494, 494, 495, 494, 493, 493, 494, 493, 494, 494, 493, 494, 494, 493, 493, 493, 493, 493, 494, 494, 494]"
7,right,"[494, 494, 494, 493, 494, 494, 494, 494, 494, 494, 495, 494, 493, 493, 494, 494, 493, 494, 494, 494, 494, 494, 494, 494, 493, 494, 494, 493, 493, 494, 494, 494, 493, 494, 495, 495, 494, 493, 493, 495, 494, 494, 494, 494, 494, 494, 494, 494, 494, 494, 493, 493, 493, 494, 494, 494, 493, 493, 494, 494, 494, 494, 494, 494, 494, 494, 493, 493, 494, 494, 494, 494, 493, 494, 494, 494, 494, 494, 495, 493, 493, 494, 494, 495, 494, 493, 494, 494, 494, 494, 494, 493, 494, 494, 494, 494, 494, 494, 493, 494, 494, 493, 494, 494, 494, 494, 495, 494, 494, 494, 491, 497, 495, 494, 494, 493, 494, 494, 492, 493, 493, 495, 494, 494, 494, 494, 494, 494, 494, 494, 493, 495, 494, 494, 494, 493, 493, 494, 494, 494, 494, 494, 494, 493, 494, 495, 496, 494, 494, 493, 494, 494, 493, 494, 494, 495, 495, 494, 494, 494, 494, 495, 494, 494, 495, 494, 493, 494, 494, 495, 494, 494, 494, 494, 495, 494, 494, 494, 494, 494, 494, 493, 494, 494, 494, 494, 494, 494, 494, 495, 494, 494, 495, 495, 494, 495, 494, 492, 495, 494, 493, 494, 493, 495, 494, 495, 494, 494, 495, 496, 494, 495, 491, 495, 494, 493, 496, 494, 494, 493, 495, 494, 497, 490, 494, 496, 496, 494, 493, 490, 498, 495, 494, 494, 496, 492, 493, 497, 489, 493, 493, 490, 493, 499, 492, 495, 495, 494, 496, 495, 496, 491, 493, 496, 491, 491, 492, 491, 493, 496, 493, 493, 489, 495, 494, 494, 489, 494, 495, 498, 488, 494, 492, 495, 493, 491, 491, 493, 494, 497, 490, 493, 487, 494, 494, 500, 494, 489, 497, 499, 499, 492, 493, 495, 491, 491, 491, 491, 497, 495, 494, 493, 496, 495, 494, 491, 498, 495, 492, 495, 492, 495, 495, 493, 492, 503, 495, 495, 494, 487, 494, 495, 500, 498, 495, 490, 491, 494, 496, 497, 494, 497, 503, 493, 495, 494, 501, 495, 497, 494, 496, 493, 491, 493, 493, 494, 494, 497, 491, 494, 495, 495, 491, 497, 495, 489, 494, 493, 491, 494, 494, 500, 494, 492, 493, 495, 488, 494, 493, 493, 494, 503, 496, 490, 494, 493, 494, 498, 499, 492, 497, 495, 496, 492, 492, 496, 496, 492, 494, 498, 491, 493, 496, 496, 494, 497, 494, 487, 494, 492, 494, 495, 497, 495, 492, 496, 495, 495, 492, 493, 495, 495, 495, 491, 493, 495, 496, 492, 494, 489, 495, 496, 494, 495, 495, 498, 501, 494, 492, 491, 490, 488, 498, 499, 495, 495, 496, 494, 496, 495, 497, 494, 494, 499, 495, 497, 494, 492, 491, 499, 497, 495, 498, 491, 497, 497, 494, 496, 494, 495, 492, 492, 499, 494, 495, 494, 496, 494, 496, 497, 495, 495, 497, 493, 495, 495, 494, 493, 495, 498, 496, 495, 493, 492, 494, 498, 496, 494, 496, 492, 495, 496, 493, 495, 494, 492, 492, 496, 499, 495, 494, 498, 494, 496, 495, 494, 496, 490, 494, 495, 495, 493, 496, 493, 495, 496, 494, 496, 493, 495, 494, 493, 496, 494, 492, 494, 497, 495, 494, 489, 500, 496, 497, 494, 496, 494, 495, 492, 497, 498, 495, 494, 494, 493, 494, 493, 495, 494, 495, 495, 495, 494, 489, 494, 494, 496, 494, 492, 493, 499, 498, 494, 496, 496, 492, 496, 494, 492, 493, 495, 495, 494, 494, 496, 493, 492, 494]"
8,rest,"[495, 495, 494, 496, 494, 494, 496, 495, 490, 492, 494, 495, 496, 494, 495, 496, 492, 494, 494, 496, 492, 489, 497, 491, 496, 494, 498, 495, 490, 495, 495, 494, 495, 494, 494, 493, 494, 496, 494, 495, 487, 498, 497, 495, 494, 496, 494, 494, 496, 493, 494, 494, 496, 494, 493, 493, 490, 496, 497, 495, 497, 495, 493, 495, 494, 495, 494, 494, 492, 491, 494, 496, 496, 494, 493, 495, 494, 496, 494, 493, 495, 490, 494, 497, 495, 496, 495, 495, 493, 495, 494, 493, 494, 496, 494, 494, 491, 491, 495, 494, 493, 493, 495, 494, 497, 494, 494, 493, 494, 494, 495, 494, 493, 494, 494, 494, 494, 495, 495, 495, 494, 492, 491, 494, 494, 496, 495, 495, 494, 493, 492, 493, 493, 496, 496, 494, 494, 492, 494, 493, 494, 493, 493, 494, 495, 495, 494, 495, 494, 494, 494, 493, 492, 492, 495, 492, 494, 495, 494, 495, 494, 494, 494, 494, 493, 493, 493, 494, 494, 492, 493, 495, 494, 494, 495, 494, 495, 493, 491, 494, 495, 494, 494, 494, 493, 493, 494, 494, 494, 494, 492, 492, 494, 494, 491, 494, 495, 493, 494, 494, 494, 494, 494, 493, 494, 494, 493, 494, 493, 492, 494, 494, 494, 491, 494, 493, 493, 493, 492, 493, 495, 494, 492, 493, 494, 495, 494, 493, 493, 493, 493, 493, 493, 493, 494, 493, 496, 494, 493, 493, 493, 494, 494, 493, 493, 494, 495, 494, 492, 494, 494, 492, 494, 495, 492, 492, 492, 494, 495, 495, 494, 494, 493, 492, 493, 494, 494, 492, 495, 495, 494, 493, 493, 492, 493, 493, 494, 494, 492, 493, 494, 494, 494, 494, 494, 493, 493, 494, 496, 492, 494, 494, 494, 493, 494, 494, 492, 494, 492, 493, 494, 493, 494, 493, 494, 493, 494, 494, 493, 494, 494, 494, 494, 494, 492, 492, 494, 494, 492, 494, 494, 493, 493, 494, 493, 492, 494, 493, 493, 494, 493, 493, 493, 494, 493, 494, 493, 494, 492, 490, 495, 495, 494, 494, 494, 494, 493, 492, 494, 494, 494, 493, 493, 494, 492, 494, 494, 494, 494, 493, 494, 494, 492, 494, 496, 494, 494, 495, 494, 494, 493, 493, 491, 492, 497, 494, 494, 494, 493, 494, 494, 494, 493, 493, 494, 494, 493, 493, 492, 494, 494, 494, 494, 493, 493, 492, 494, 494, 494, 494, 494, 492, 493, 494, 494, 494, 494, 494, 492, 492, 492, 496, 494, 494, 494, 493, 492, 494, 493, 494, 494, 494, 495, 494, 492, 493, 492, 494, 494, 494, 494, 493, 494, 494, 494, 493, 494, 494, 494, 494, 493, 493, 494, 495, 494, 494, 494, 494, 494, 494, 493, 494, 494, 494, 494, 494, 494, 494, 493, 494, 494, 495, 494, 494, 494, 493, 494, 493, 494, 494, 494, 492, 494, 495, 494, 495, 494, 494, 493, 494, 494, 494, 494, 494, 494, 494, 493, 493, 493, 494, 494, 494, 493, 494, 494, 494, 494, 494, 493, 494, 494, 494, 494, 494, 493, 494, 493, 493, 494, 494, 493, 492, 494, 494, 494, 494, 493, 493, 493, 494, 494, 494, 494, 494, 493, 494, 494, 493, 494, 494, 494, 494, 493, 493, 493, 493, 494, 494, 495, 494, 493, 494, 493, 493, 494, 493, 494, 494, 494, 494, 494, 494, 493, 494, 494, 493, 494, 495, 494, 493, 493, 493, 493, 494, 494, 493, 494, 494, 494, 495, 494, 493, 494, 494, 494, 494]"
9,right,"[493, 494, 494, 494, 494, 492, 493, 493, 494, 495, 494, 494, 494, 494, 493, 494, 494, 493, 493, 494, 494, 493, 494, 493, 493, 494, 493, 494, 494, 493, 493, 493, 494, 494, 494, 495, 494, 493, 493, 494, 494, 494, 493, 493, 494, 494, 494, 493, 494, 493, 492, 494, 494, 493, 493, 492, 494, 494, 494, 494, 494, 494, 493, 495, 494, 494, 493, 494, 494, 494, 494, 492, 492, 495, 494, 493, 494, 494, 493, 494, 494, 493, 493, 494, 494, 494, 494, 493, 493, 494, 493, 494, 495, 494, 494, 494, 494, 493, 494, 494, 494, 494, 494, 494, 493, 494, 494, 493, 493, 493, 494, 493, 494, 494, 492, 494, 494, 494, 493, 494, 493, 494, 494, 493, 493, 496, 494, 494, 494, 491, 494, 494, 494, 494, 494, 493, 494, 494, 494, 493, 493, 494, 493, 494, 494, 493, 492, 494, 495, 494, 494, 494, 493, 494, 494, 494, 494, 493, 495, 494, 494, 494, 494, 494, 494, 494, 494, 493, 495, 495, 494, 491, 494, 494, 493, 495, 495, 495, 494, 495, 493, 494, 494, 493, 494, 494, 493, 493, 494, 494, 494, 493, 494, 494, 493, 494, 494, 493, 494, 494, 494, 494, 494, 494, 494, 494, 493, 492, 494, 495, 494, 494, 493, 493, 494, 494, 492, 494, 494, 494, 493, 493, 494, 494, 494, 493, 493, 494, 494, 493, 493, 494, 493, 494, 494, 493, 493, 495, 495, 494, 494, 494, 494, 494, 494, 493, 494, 494, 493, 494, 493, 494, 494, 495, 494, 492, 495, 494, 494, 494, 494, 494, 494, 494, 493, 495, 493, 494, 493, 494, 496, 493, 494, 493, 494, 492, 495, 494, 492, 496, 492, 495, 495, 492, 495, 493, 494, 493, 491, 494, 494, 495, 494, 490, 490, 499, 493, 496, 494, 491, 498, 494, 493, 492, 493, 489, 493, 487, 499, 492, 498, 488, 490, 494, 494, 492, 496, 493, 498, 501, 494, 493, 492, 494, 496, 494, 494, 492, 493, 492, 490, 493, 494, 497, 494, 493, 492, 492, 499, 496, 489, 490, 496, 492, 491, 496, 492, 492, 494, 495, 494, 493, 496, 495, 495, 503, 494, 493, 495, 492, 489, 501, 494, 493, 488, 493, 500, 493, 495, 493, 495, 492, 491, 492, 492, 492, 489, 502, 497, 495, 491, 495, 500, 493, 485, 497, 493, 499, 493, 494, 491, 489, 495, 499, 496, 495, 491, 494, 501, 489, 495, 495, 494, 494, 492, 504, 496, 494, 494, 496, 495, 496, 496, 493, 492, 494, 496, 495, 489, 494, 500, 493, 495, 498, 496, 493, 497, 494, 496, 494, 495, 489, 496, 494, 491, 497, 493, 494, 491, 495, 494, 497, 497, 495, 491, 495, 494, 496, 494, 492, 499, 489, 494, 494, 496, 494, 497, 496, 492, 492, 497, 500, 493, 500, 489, 491, 499, 495, 491, 495, 494, 493, 495, 497, 498, 493, 498, 495, 492, 495, 493, 492, 496, 495, 498, 497, 498, 497, 498, 493, 496, 491, 495, 495, 492, 500, 493, 494, 494, 500, 496, 496, 492, 494, 495, 497, 494, 495, 489, 499, 490, 490, 500, 492, 496, 495, 493, 496, 497, 496, 495, 492, 496, 496, 492, 495, 493, 499, 494, 491, 498, 493, 498, 493, 492, 492, 493, 501, 496, 495, 494, 496, 489, 495, 502, 493, 496, 493, 499, 491, 496, 493, 496, 493, 494, 490, 499, 494, 492, 493, 497, 495, 497, 495, 492, 495, 500, 496, 493, 494, 495, 497, 494, 493, 496, 498, 498]"
10,rest,"[492, 494, 495, 493, 493, 496, 494, 494, 496, 496, 492, 494, 494, 497, 494, 493, 493, 494, 496, 494, 495, 492, 499, 493, 494, 494, 493, 493, 496, 494, 494, 494, 495, 494, 495, 494, 494, 497, 494, 493, 491, 496, 495, 495, 496, 494, 494, 496, 495, 495, 495, 496, 493, 493, 495, 497, 494, 494, 493, 494, 494, 494, 496, 495, 494, 497, 494, 495, 494, 494, 494, 495, 494, 494, 495, 494, 496, 494, 494, 494, 492, 494, 496, 494, 494, 494, 494, 494, 494, 494, 494, 494, 494, 493, 494, 495, 494, 493, 493, 494, 492, 495, 495, 494, 495, 494, 495, 494, 494, 492, 493, 494, 494, 493, 496, 493, 496, 493, 494, 493, 494, 494, 493, 495, 494, 493, 493, 494, 494, 494, 495, 493, 493, 495, 495, 494, 494, 494, 494, 494, 493, 493, 494, 495, 493, 494, 494, 494, 493, 496, 494, 492, 495, 494, 494, 494, 494, 494, 494, 495, 492, 494, 494, 494, 492, 493, 494, 494, 494, 494, 493, 493, 495, 494, 494, 494, 494, 494, 494, 495, 494, 494, 494, 493, 492, 494, 494, 494, 493, 494, 493, 494, 494, 494, 494, 493, 493, 493, 494, 493, 494, 496, 493, 495, 493, 495, 492, 492, 493, 493, 494, 494, 492, 494, 494, 493, 494, 495, 494, 494, 494, 494, 494, 494, 493, 493, 493, 493, 493, 494, 494, 493, 494, 493, 493, 491, 494, 494, 494, 494, 494, 494, 494, 494, 493, 494, 494, 492, 493, 494, 494, 493, 494, 494, 493, 494, 494, 493, 494, 494, 494, 494, 494, 494, 493, 493, 494, 494, 494, 493, 494, 494, 493, 492, 494, 494, 494, 493, 495, 493, 494, 494, 493, 494, 494, 493, 492, 494, 493, 492, 492, 497, 494, 494, 494, 494, 494, 494, 495, 494, 494, 494, 493, 494, 493, 493, 494, 495, 493, 494, 493, 493, 493, 493, 494, 495, 494, 493, 494, 495, 494, 495, 494, 494, 493, 494, 494, 494, 495, 494, 493, 492, 496, 494, 494, 495, 494, 493, 494, 494, 494, 495, 494, 494, 494, 493, 492, 494, 495, 495, 495, 494, 494, 493, 493, 495, 494, 494, 494, 494, 494, 494, 494, 493, 494, 493, 493, 496, 495, 492, 495, 494, 494, 493, 493, 492, 494, 496, 494, 494, 494, 493, 493, 493, 494, 494, 495, 494, 493, 493, 494, 493, 494, 495, 494, 493, 494, 494, 494, 494, 494, 494, 494, 492, 493, 494, 495, 494, 494, 494, 492, 492, 494, 494, 494, 496, 494, 494, 494, 492, 493, 494, 494, 494, 494, 494, 494, 494, 494, 494, 492, 491, 495, 494, 494, 494, 495, 494, 494, 494, 493, 493, 494, 494, 494, 494, 494, 494, 493, 492, 494, 495, 494, 495, 495, 493, 493, 494, 494, 494, 494, 494, 493, 492, 492, 494, 495, 494, 494, 494, 494, 491, 494, 496, 494, 494, 494, 494, 494, 494, 494, 494, 494, 494, 494, 493, 494, 494, 494, 494, 494, 494, 494, 493, 492, 495, 495, 494, 494, 494, 494, 494, 494, 494, 494, 493, 493, 495, 494, 495, 494, 494, 493, 493, 495, 494, 493, 494, 494, 494, 494, 494, 494, 493, 494, 494, 493, 494, 494, 494, 494, 494, 493, 495, 494, 493, 494, 494, 494, 494, 494, 493, 493, 495, 494, 494, 495, 494, 494, 494, 494, 494, 494, 494, 494, 494, 494, 493, 494, 494, 493, 493, 495, 494, 493, 494, 494, 494, 494, 494, 494, 494, 494, 494, 493, 494, 493]"
11,right,"[494, 494, 494, 492, 494, 494, 494, 494, 494, 494, 494, 493, 493, 493, 495, 494, 493, 494, 494, 494, 494, 493, 494, 494, 494, 494, 493, 494, 493, 494, 492, 493, 494, 495, 494, 494, 494, 494, 494, 494, 493, 493, 494, 495, 494, 493, 494, 493, 493, 493, 494, 493, 495, 494, 494, 493, 493, 493, 494, 494, 494, 493, 494, 494, 492, 494, 494, 494, 493, 494, 493, 494, 494, 493, 494, 494, 493, 493, 494, 494, 493, 493, 494, 494, 493, 494, 492, 494, 494, 494, 494, 494, 494, 493, 494, 493, 494, 494, 494, 493, 493, 494, 493, 494, 493, 494, 494, 494, 493, 494, 494, 494, 493, 494, 493, 493, 494, 494, 493, 493, 494, 495, 494, 495, 493, 495, 494, 494, 494, 494, 495, 493, 493, 494, 493, 494, 494, 494, 493, 494, 494, 495, 494, 493, 493, 494, 494, 493, 494, 495, 494, 494, 494, 493, 494, 493, 494, 496, 494, 494, 494, 494, 494, 494, 494, 495, 494, 493, 494, 493, 496, 494, 493, 493, 496, 495, 493, 495, 494, 492, 493, 496, 494, 495, 494, 493, 492, 499, 495, 494, 493, 493, 493, 496, 493, 495, 492, 494, 492, 493, 493, 492, 495, 491, 495, 497, 494, 491, 494, 495, 497, 494, 494, 493, 493, 495, 497, 487, 493, 494, 491, 491, 502, 494, 493, 490, 495, 492, 494, 497, 498, 495, 492, 501, 490, 491, 493, 493, 495, 495, 492, 494, 496, 490, 493, 494, 491, 492, 497, 495, 493, 490, 488, 492, 497, 494, 487, 493, 497, 494, 494, 498, 492, 500, 485, 493, 491, 500, 490, 492, 501, 494, 493, 494, 492, 497, 485, 494, 493, 492, 493, 496, 496, 500, 494, 492, 494, 499, 493, 490, 494, 493, 495, 494, 494, 497, 493, 493, 493, 495, 493, 493, 491, 494, 495, 488, 497, 488, 496, 488, 495, 492, 495, 498, 493, 496, 491, 494, 497, 492, 493, 493, 487, 497, 493, 499, 491, 490, 496, 497, 496, 489, 491, 496, 496, 497, 493, 492, 497, 494, 494, 493, 494, 495, 494, 493, 497, 500, 492, 492, 497, 497, 494, 496, 493, 493, 491, 494, 498, 498, 488, 492, 493, 496, 496, 496, 494, 493, 494, 494, 493, 492, 493, 494, 494, 497, 493, 496, 497, 496, 494, 493, 490, 492, 499, 492, 493, 495, 495, 494, 493, 496, 494, 493, 494, 497, 495, 491, 494, 493, 493, 496, 494, 492, 494, 497, 493, 494, 497, 490, 497, 497, 495, 493, 493, 494, 492, 496, 495, 494, 497, 491, 495, 494, 498, 490, 493, 496, 494, 498, 494, 496, 495, 492, 494, 495, 494, 494, 494, 497, 497, 494, 494, 494, 494, 495, 494, 492, 494, 498, 492, 494, 494, 496, 495, 494, 494, 494, 493, 499, 496, 494, 494, 495, 494, 496, 494, 495, 495, 496, 496, 492, 493, 494, 496, 495, 494, 495, 494, 496, 495, 494, 494, 494, 495, 495, 494, 496, 495, 494, 494, 496, 495, 493, 494, 494, 495, 494, 496, 494, 494, 494, 496, 494, 495, 494, 494, 494, 494, 495, 496, 495, 495, 494, 493, 496, 494, 495, 495, 494, 494, 495, 493, 495, 496, 494, 494, 495, 494, 492, 495, 494, 494, 494, 495, 495, 494, 495, 494, 494, 494, 494, 495, 495, 494, 494, 494, 494, 497, 493, 494, 494, 495, 493, 494, 494, 494, 494, 494, 494, 494, 494, 495, 494, 496, 494, 494, 493, 493, 494, 493, 493, 494, 493, 495, 495, 494]"
12,rest,"[494, 494, 494, 493, 493, 494, 494, 495, 494, 494, 494, 494, 492, 493, 495, 492, 496, 495, 493, 494, 494, 495, 495, 494, 494, 494, 495, 494, 494, 496, 493, 493, 493, 493, 493, 494, 494, 494, 494, 493, 494, 493, 494, 492, 491, 494, 494, 494, 494, 494, 494, 494, 494, 494, 494, 494, 494, 493, 493, 494, 493, 494, 493, 494, 494, 495, 493, 494, 494, 495, 494, 494, 494, 493, 494, 493, 493, 495, 493, 493, 494, 494, 494, 494, 493, 492, 495, 494, 493, 493, 493, 493, 493, 494, 494, 493, 494, 493, 495, 494, 495, 493, 494, 493, 494, 493, 494, 494, 494, 494, 493, 493, 493, 494, 494, 494, 493, 493, 494, 494, 494, 494, 495, 494, 492, 495, 494, 494, 495, 493, 494, 494, 493, 492, 494, 494, 493, 494, 494, 494, 494, 495, 493, 492, 494, 494, 493, 494, 495, 495, 493, 493, 491, 494, 494, 495, 494, 495, 494, 494, 491, 494, 494, 494, 495, 493, 492, 494, 493, 493, 494, 494, 494, 494, 493, 494, 494, 494, 493, 494, 495, 493, 494, 494, 494, 493, 494, 494, 491, 494, 494, 493, 493, 495, 493, 493, 494, 494, 494, 494, 494, 494, 494, 494, 492, 494, 493, 494, 493, 494, 493, 494, 494, 494, 494, 494, 491, 492, 494, 494, 493, 494, 494, 494, 494, 494, 493, 493, 493, 494, 494, 494, 494, 494, 494, 493, 491, 493, 495, 494, 494, 492, 493, 494, 494, 494, 494, 494, 493, 492, 494, 493, 494, 493, 493, 494, 493, 494, 494, 493, 491, 494, 494, 495, 494, 494, 494, 493, 492, 494, 494, 493, 494, 494, 493, 494, 493, 491, 494, 495, 494, 494, 494, 494, 493, 494, 494, 493, 492, 492, 494, 496, 494, 493, 493, 493, 494, 494, 494, 493, 491, 492, 492, 496, 496, 495, 494, 494, 493, 491, 493, 494, 494, 494, 494, 493, 492, 493, 494, 494, 494, 494, 494, 494, 493, 494, 494, 493, 494, 494, 494, 491, 492, 495, 494, 494, 494, 494, 493, 494, 494, 492, 494, 494, 495, 493, 494, 492, 490, 493, 494, 494, 494, 494, 493, 495, 494, 494, 494, 494, 494, 494, 492, 492, 494, 494, 494, 494, 494, 493, 493, 494, 493, 494, 494, 495, 492, 493, 495, 494, 494, 494, 494, 492, 493, 493, 493, 494, 494, 494, 494, 492, 493, 494, 494, 494, 493, 495, 495, 493, 494, 493, 494, 494, 494, 493, 493, 493, 493, 494, 494, 494, 493, 493, 493, 494, 494, 494, 494, 493, 493, 494, 494, 494, 494, 494, 494, 494, 493, 494, 494, 494, 494, 493, 492, 494, 495, 494, 494, 494, 493, 493, 494, 495, 493, 494, 494, 495, 493, 493, 493, 494, 494, 493, 493, 494, 494, 492, 493, 494, 494, 495, 494, 494, 494, 493, 492, 494, 494, 494, 494, 494, 493, 492, 492, 494, 494, 493, 492, 492, 494, 495, 494, 494, 494, 494, 494, 494, 492, 494, 494, 493, 493, 494, 493, 494, 493, 493, 493, 493, 494, 494, 493, 494, 494, 493, 494, 494, 494, 494, 494, 493, 494, 494, 493, 494, 494, 494, 494, 493, 492, 494, 495, 494, 493, 494, 494, 493, 493, 492, 494, 494, 494, 494, 494, 494, 493, 495, 494, 493, 492, 494, 494, 493, 493, 493, 492, 491, 495, 494, 494, 494, 493, 493, 493, 493, 493, 494, 494, 494, 494, 493, 491, 494, 494, 493, 494, 494, 494, 491, 494, 494, 494, 494, 494, 494]"
13,right,"[493, 494, 494, 494, 494, 494, 493, 494, 492, 494, 494, 494, 494, 494, 493, 492, 494, 495, 493, 494, 494, 493, 493, 494, 494, 494, 494, 493, 492, 494, 493, 494, 494, 494, 493, 494, 494, 493, 494, 494, 493, 493, 494, 494, 493, 494, 493, 493, 493, 494, 493, 494, 494, 494, 493, 494, 494, 493, 494, 494, 493, 493, 493, 493, 494, 494, 494, 494, 494, 493, 493, 493, 495, 494, 494, 494, 493, 494, 493, 492, 494, 494, 494, 494, 493, 493, 494, 494, 492, 494, 494, 494, 493, 494, 494, 493, 494, 494, 493, 493, 493, 494, 494, 494, 494, 493, 493, 493, 494, 494, 493, 493, 494, 494, 493, 494, 494, 493, 494, 494, 493, 493, 494, 493, 494, 494, 494, 492, 494, 494, 494, 494, 494, 494, 493, 494, 493, 493, 494, 493, 494, 494, 494, 492, 493, 494, 494, 494, 493, 493, 493, 494, 494, 493, 494, 493, 493, 493, 494, 494, 494, 494, 493, 493, 494, 493, 493, 494, 493, 494, 493, 494, 494, 494, 494, 494, 494, 494, 493, 494, 494, 494, 493, 494, 494, 494, 494, 494, 495, 495, 493, 494, 494, 501, 490, 493, 494, 494, 493, 494, 494, 492, 494, 496, 493, 494, 496, 494, 494, 494, 493, 492, 493, 493, 494, 496, 492, 494, 495, 492, 495, 500, 494, 494, 494, 492, 492, 493, 495, 493, 496, 496, 492, 496, 495, 496, 495, 491, 493, 493, 494, 492, 494, 492, 503, 486, 495, 488, 499, 494, 494, 494, 492, 495, 489, 493, 494, 493, 494, 492, 491, 493, 494, 497, 490, 493, 498, 494, 494, 495, 499, 495, 491, 494, 494, 494, 495, 488, 494, 495, 494, 493, 495, 495, 492, 496, 493, 495, 494, 494, 486, 501, 494, 496, 488, 491, 488, 490, 496, 492, 499, 490, 495, 491, 494, 495, 493, 494, 494, 494, 497, 493, 495, 494, 494, 494, 495, 496, 493, 493, 491, 494, 489, 495, 493, 493, 497, 503, 492, 494, 494, 490, 494, 493, 494, 493, 500, 497, 487, 493, 491, 498, 498, 496, 493, 494, 492, 500, 498, 494, 491, 485, 493, 497, 495, 493, 493, 494, 495, 493, 500, 492, 492, 494, 498, 494, 487, 494, 495, 496, 495, 500, 493, 493, 496, 489, 498, 492, 494, 493, 494, 491, 493, 500, 497, 498, 492, 498, 491, 494, 487, 490, 500, 495, 487, 496, 497, 492, 492, 495, 501, 494, 489, 497, 494, 486, 496, 495, 500, 493, 494, 497, 493, 493, 493, 495, 493, 495, 494, 493, 494, 497, 494, 493, 496, 497, 494, 493, 485, 498, 494, 498, 495, 492, 497, 496, 494, 492, 493, 494, 497, 492, 496, 494, 496, 494, 494, 494, 497, 494, 493, 496, 496, 490, 497, 495, 494, 494, 498, 493, 496, 494, 494, 501, 499, 492, 494, 494, 494, 493, 494, 495, 493, 494, 494, 492, 496, 494, 497, 493, 494, 494, 496, 494, 494, 493, 496, 495, 495, 494, 494, 495, 495, 494, 495, 496, 494, 496, 494, 494, 495, 493, 494, 497, 495, 495, 496, 495, 494, 494, 495, 495, 495, 494, 494, 494, 496, 495, 494, 495, 494, 496, 495, 494, 493, 495, 496, 495, 494, 495, 494, 494, 495, 495, 495, 495, 495, 494, 495, 495, 494, 494, 494, 494, 494, 496, 495, 494, 494, 494, 495, 495, 494, 494, 494, 494, 494, 495, 494, 492, 494, 495, 494, 494, 495, 494, 495, 495, 495, 493, 495, 496, 494, 494, 495, 495, 494]"
14,rest,"[494, 494, 495, 495, 494, 494, 494, 493, 494, 496, 495, 493, 495, 495, 494, 495, 494, 495, 494, 494, 494, 495, 494, 494, 494, 494, 495, 494, 494, 494, 494, 494, 494, 494, 494, 494, 495, 494, 494, 494, 494, 494, 494, 494, 494, 495, 493, 493, 494, 494, 495, 494, 494, 494, 494, 494, 494, 494, 494, 494, 494, 495, 493, 494, 494, 494, 494, 494, 494, 493, 494, 494, 493, 494, 495, 494, 495, 494, 494, 494, 495, 493, 494, 495, 494, 493, 494, 495, 494, 494, 494, 493, 493, 494, 493, 493, 494, 494, 493, 494, 493, 493, 495, 495, 493, 494, 494, 494, 494, 494, 495, 494, 494, 494, 493, 494, 494, 493, 494, 494, 493, 494, 494, 494, 494, 494, 493, 495, 494, 494, 493, 494, 494, 494, 494, 494, 493, 495, 494, 494, 494, 494, 494, 494, 493, 493, 493, 494, 494, 493, 494, 493, 494, 494, 493, 494, 494, 493, 494, 494, 494, 494, 494, 494, 494, 493, 494, 493, 494, 492, 494, 494, 494, 494, 493, 493, 494, 493, 494, 494, 494, 494, 494, 494, 493, 495, 494, 494, 493, 494, 493, 494, 494, 494, 494, 494, 493, 493, 496, 493, 493, 494, 495, 493, 493, 495, 493, 492, 494, 493, 493, 494, 495, 494, 494, 494, 494, 494, 494, 494, 494, 493, 494, 493, 496, 492, 494, 494, 493, 494, 494, 494, 494, 494, 494, 494, 493, 495, 494, 493, 492, 494, 493, 495, 494, 494, 494, 494, 493, 494, 494, 494, 494, 494, 493, 494, 493, 492, 494, 494, 493, 493, 494, 494, 493, 494, 493, 493, 495, 495, 493, 493, 495, 493, 494, 494, 494, 494, 494, 494, 493, 493, 494, 494, 494, 493, 494, 494, 494, 493, 494, 494, 493, 494, 494, 493, 493, 493, 494, 494, 494, 494, 494, 494, 494, 493, 494, 494, 494, 493, 494, 494, 494, 494, 495, 493, 493, 494, 494, 493, 495, 494, 494, 494, 494, 493, 494, 494, 493, 494, 497, 494, 493, 494, 493, 493, 493, 493, 494, 493, 494, 494, 494, 493, 494, 494, 492, 494, 494, 495, 494, 494, 494, 494, 494, 493, 493, 494, 494, 494, 493, 494, 493, 493, 494, 494, 494, 494, 494, 493, 493, 494, 494, 493, 494, 494, 492, 493, 494, 493, 494, 494, 493, 494, 494, 493, 494, 494, 495, 493, 493, 494, 493, 494, 494, 493, 493, 495, 494, 494, 494, 493, 493, 493, 494, 494, 494, 495, 494, 493, 494, 492, 492, 497, 493, 494, 494, 494, 494, 493, 491, 491, 495, 494, 494, 494, 494, 494, 494, 493, 492, 494, 494, 494, 493, 494, 494, 493, 494, 494, 493, 493, 494, 494, 494, 494, 494, 493, 493, 492, 494, 494, 494, 493, 494, 493, 493, 494, 494, 493, 494, 493, 493, 493, 494, 494, 494, 493, 492, 492, 495, 494, 493, 494, 494, 493, 494, 494, 493, 494, 494, 494, 492, 494, 494, 493, 493, 494, 492, 493, 494, 493, 494, 494, 494, 494, 494, 492, 493, 494, 494, 494, 494, 491, 492, 494, 494, 494, 494, 494, 492, 492, 492, 494, 494, 494, 494, 493, 494, 493, 493, 494, 496, 493, 493, 492, 492, 493, 495, 494, 493, 493, 493, 494, 494, 494, 493, 493, 493, 492, 494, 494, 494, 494, 493, 493, 494, 495, 494, 493, 493, 492, 493, 494, 494, 494, 493, 493, 493, 493, 494, 494, 494, 493, 492, 492, 493, 493, 493, 493, 495, 494, 493, 494, 494, 492, 494]"
15,right,"[494, 494, 494, 493, 493, 493, 494, 493, 493, 494, 493, 493, 494, 494, 494, 494, 493, 492, 493, 494, 493, 494, 494, 493, 494, 494, 493, 493, 493, 494, 493, 493, 494, 494, 493, 493, 492, 493, 494, 492, 494, 494, 493, 493, 494, 494, 492, 494, 494, 493, 494, 494, 494, 493, 494, 492, 493, 494, 492, 492, 494, 494, 493, 494, 492, 493, 494, 494, 493, 494, 494, 493, 493, 494, 493, 494, 494, 492, 493, 494, 494, 494, 494, 494, 493, 493, 493, 494, 494, 494, 493, 492, 494, 492, 493, 494, 494, 493, 494, 494, 493, 494, 494, 493, 493, 494, 494, 494, 493, 493, 494, 494, 493, 493, 493, 494, 494, 493, 494, 493, 493, 494, 494, 494, 494, 493, 493, 494, 494, 494, 494, 493, 493, 494, 494, 493, 494, 493, 493, 494, 494, 494, 492, 494, 493, 493, 494, 494, 493, 494, 494, 494, 493, 493, 494, 494, 494, 493, 494, 494, 493, 493, 493, 493, 493, 494, 494, 494, 494, 494, 493, 493, 494, 494, 494, 494, 493, 493, 494, 494, 493, 493, 494, 493, 494, 493, 494, 494, 494, 494, 494, 494, 494, 494, 493, 493, 494, 494, 494, 494, 492, 493, 494, 494, 494, 493, 494, 494, 493, 494, 493, 494, 494, 494, 494, 494, 495, 494, 493, 492, 495, 495, 494, 493, 494, 494, 494, 494, 493, 494, 494, 493, 494, 493, 493, 494, 494, 494, 494, 494, 495, 494, 494, 493, 494, 495, 494, 494, 494, 493, 495, 494, 493, 494, 494, 494, 494, 494, 494, 495, 494, 494, 494, 494, 494, 496, 495, 492, 495, 495, 495, 494, 494, 494, 495, 494, 495, 494, 493, 494, 495, 494, 495, 488, 494, 495, 491, 493, 491, 494, 498, 493, 494, 493, 494, 492, 489, 491, 491, 494, 499, 492, 489, 491, 494, 493, 496, 499, 491, 494, 494, 493, 495, 494, 495, 491, 494, 497, 491, 494, 494, 495, 492, 493, 493, 491, 492, 494, 494, 492, 496, 490, 490, 493, 495, 489, 495, 495, 504, 494, 497, 491, 489, 495, 499, 496, 500, 491, 494, 489, 492, 498, 494, 494, 496, 492, 492, 496, 494, 486, 497, 499, 495, 489, 492, 502, 493, 499, 498, 492, 492, 495, 492, 497, 492, 493, 499, 488, 496, 504, 496, 492, 493, 495, 495, 495, 494, 494, 495, 496, 494, 498, 492, 502, 490, 489, 494, 494, 495, 492, 491, 488, 505, 493, 495, 497, 495, 498, 491, 492, 501, 488, 493, 502, 491, 491, 490, 496, 495, 494, 498, 494, 494, 495, 491, 496, 491, 491, 500, 493, 493, 489, 499, 504, 486, 498, 492, 496, 488, 495, 496, 495, 490, 495, 495, 494, 504, 498, 494, 495, 498, 492, 489, 494, 488, 489, 494, 493, 499, 496, 491, 496, 496, 496, 496, 494, 499, 490, 500, 493, 488, 497, 499, 491, 488, 489, 496, 498, 492, 498, 493, 498, 498, 495, 491, 491, 494, 493, 497, 490, 488, 495, 494, 490, 500, 491, 494, 500, 497, 490, 492, 496, 497, 490, 493, 493, 488, 494, 501, 488, 491, 504, 498, 488, 505, 496, 490, 495, 494, 495, 488, 488, 496, 491, 495, 498, 494, 499, 491, 488, 505, 495, 495, 498, 500, 495, 496, 483, 500, 499, 494, 497, 498, 490, 491, 493, 501, 496, 491, 499, 489, 497, 493, 494, 496, 498, 499, 496, 498, 498, 493, 494, 496, 494, 490, 481, 504, 500, 499, 497, 496, 495, 494, 491, 497, 493, 499]"
16,rest,"[489, 499, 498, 494, 500, 489, 495, 496, 498, 494, 491, 491, 501, 497, 498, 490, 494, 494, 495, 497, 493, 493, 497, 494, 496, 495, 498, 494, 494, 494, 495, 495, 488, 498, 497, 493, 495, 500, 490, 495, 495, 495, 493, 496, 498, 491, 493, 495, 492, 496, 499, 499, 497, 492, 498, 496, 495, 494, 491, 492, 495, 495, 494, 494, 494, 494, 498, 496, 499, 490, 494, 495, 498, 494, 494, 494, 494, 498, 495, 494, 496, 492, 495, 494, 495, 493, 492, 494, 497, 498, 494, 495, 492, 494, 492, 500, 494, 491, 494, 498, 490, 492, 495, 495, 498, 492, 496, 497, 494, 494, 495, 494, 494, 492, 494, 496, 495, 493, 496, 494, 498, 497, 494, 494, 493, 493, 495, 496, 494, 494, 492, 497, 494, 494, 495, 495, 495, 494, 495, 494, 493, 492, 495, 495, 494, 494, 495, 494, 493, 494, 494, 496, 495, 494, 494, 494, 494, 494, 494, 494, 496, 493, 494, 494, 494, 496, 494, 493, 494, 493, 495, 494, 494, 495, 494, 494, 493, 494, 494, 494, 494, 494, 493, 493, 495, 494, 493, 492, 494, 494, 495, 494, 493, 494, 496, 494, 493, 494, 494, 493, 493, 493, 491, 494, 494, 494, 494, 495, 492, 490, 498, 495, 493, 495, 494, 491, 492, 494, 495, 494, 494, 493, 494, 495, 494, 492, 494, 492, 494, 494, 494, 493, 493, 493, 493, 494, 494, 494, 495, 494, 494, 494, 494, 492, 493, 494, 494, 494, 495, 493, 494, 494, 494, 493, 493, 494, 494, 494, 494, 493, 493, 494, 493, 493, 494, 493, 493, 494, 492, 494, 494, 494, 495, 494, 494, 494, 494, 495, 494, 492, 494, 495, 493, 493, 494, 493, 495, 494, 494, 494, 493, 494, 494, 495, 494, 494, 494, 494, 494, 494, 495, 493, 493, 494, 494, 494, 494, 494, 492, 494, 495, 493, 493, 494, 494, 495, 494, 494, 494, 494, 494, 494, 494, 494, 495, 493, 493, 494, 495, 494, 492, 494, 494, 494, 495, 494, 493, 494, 494, 494, 494, 493, 494, 492, 494, 495, 494, 494, 494, 494, 494, 494, 494, 494, 494, 494, 493, 494, 494, 493, 493, 493, 494, 495, 495, 492, 493, 495, 493, 492, 494, 494, 494, 495, 493, 494, 494, 494, 494, 494, 494, 494, 495, 494, 494, 494, 494, 494, 493, 494, 493, 494, 495, 494, 493, 494, 494, 494, 494, 494, 494, 494, 494, 493, 494, 494, 494, 494, 494, 494, 493, 494, 495, 494, 494, 494, 495, 495, 494, 493, 493, 495, 494, 494, 495, 494, 494, 493, 493, 493, 493, 494, 495, 494, 494, 494, 494, 494, 494, 494, 494, 494, 494, 495, 494, 492, 494, 494, 494, 493, 495, 494, 493, 495, 494, 494, 494, 494, 494, 495, 494, 493, 494, 494, 494, 492, 495, 494, 492, 495, 495, 493, 494, 493, 494, 495, 494, 493, 494, 495, 494, 494, 494, 492, 493, 493, 494, 493, 495, 494, 494, 493, 495, 494, 494, 493, 493, 494, 494, 494, 494, 494, 493, 492, 494, 494, 493, 493, 493, 494, 495, 495, 494, 494, 494, 494, 494, 495, 494, 493, 493, 494, 495, 493, 493, 493, 494, 494, 494, 493, 494, 493, 493, 493, 493, 494, 494, 494, 493, 493, 494, 494, 494, 494, 493, 494, 494, 493, 494, 494, 494, 494, 494, 492, 493, 495, 494, 492, 494, 494, 494, 494, 494, 494, 494, 494, 494, 493, 493, 493, 494, 494, 494, 493, 492, 496]"
17,right,"[494, 494, 495, 494, 494, 494, 495, 493, 494, 494, 492, 495, 495, 494, 494, 494, 492, 493, 495, 494, 494, 494, 495, 493, 494, 494, 493, 494, 495, 494, 494, 494, 493, 494, 495, 494, 493, 493, 494, 495, 494, 493, 495, 495, 494, 494, 494, 494, 494, 495, 494, 493, 493, 495, 494, 493, 494, 494, 494, 494, 494, 493, 495, 494, 494, 494, 494, 495, 494, 494, 493, 493, 494, 494, 492, 494, 494, 494, 494, 494, 493, 492, 494, 495, 494, 494, 494, 492, 494, 494, 493, 494, 494, 494, 494, 492, 494, 494, 493, 493, 494, 494, 493, 494, 495, 494, 493, 494, 494, 494, 495, 494, 493, 492, 494, 493, 493, 494, 494, 493, 494, 493, 494, 494, 494, 493, 494, 494, 494, 493, 494, 493, 493, 494, 494, 493, 493, 495, 494, 495, 493, 494, 494, 494, 495, 494, 493, 494, 494, 494, 494, 492, 494, 494, 494, 494, 494, 493, 494, 495, 494, 494, 494, 494, 493, 494, 492, 494, 494, 494, 494, 495, 494, 495, 495, 494, 493, 494, 494, 493, 493, 494, 493, 494, 494, 495, 493, 494, 495, 494, 494, 494, 495, 494, 494, 495, 493, 494, 494, 494, 495, 495, 493, 495, 495, 494, 494, 494, 494, 493, 494, 495, 493, 494, 493, 496, 496, 494, 494, 494, 494, 493, 494, 494, 495, 492, 495, 494, 494, 496, 494, 494, 494, 494, 495, 494, 494, 495, 492, 494, 494, 495, 494, 492, 494, 495, 494, 495, 494, 493, 493, 494, 495, 494, 493, 495, 494, 491, 493, 494, 496, 494, 494, 491, 492, 495, 496, 494, 494, 494, 493, 494, 493, 493, 495, 494, 493, 496, 492, 494, 494, 493, 494, 496, 496, 493, 494, 493, 492, 491, 497, 493, 493, 494, 496, 493, 499, 489, 493, 491, 495, 495, 494, 493, 492, 493, 496, 494, 498, 491, 492, 491, 493, 494, 493, 496, 491, 493, 493, 493, 492, 495, 494, 491, 494, 494, 492, 491, 498, 492, 495, 491, 492, 496, 493, 498, 491, 493, 496, 494, 505, 488, 489, 491, 496, 493, 497, 490, 495, 495, 496, 496, 489, 493, 493, 495, 493, 493, 491, 499, 491, 496, 499, 495, 493, 490, 496, 490, 495, 496, 490, 492, 489, 498, 495, 488, 493, 494, 493, 494, 498, 496, 498, 495, 493, 493, 488, 487, 494, 494, 494, 490, 492, 497, 496, 498, 492, 491, 495, 497, 488, 495, 493, 491, 488, 490, 491, 491, 497, 491, 500, 496, 492, 490, 501, 489, 493, 484, 494, 498, 493, 494, 489, 496, 496, 497, 493, 494, 496, 497, 493, 495, 492, 483, 496, 491, 488, 494, 497, 491, 493, 494, 494, 497, 490, 499, 494, 494, 494, 498, 495, 495, 489, 495, 490, 493, 494, 489, 498, 501, 493, 494, 497, 493, 495, 497, 494, 495, 492, 493, 495, 498, 493, 491, 490, 495, 495, 494, 497, 501, 486, 502, 494, 495, 495, 495, 495, 495, 489, 496, 494, 498, 495, 497, 500, 494, 497, 495, 495, 495, 496, 494, 493, 495, 494, 488, 496, 500, 492, 494, 492, 499, 497, 495, 492, 499, 503, 491, 494, 491, 494, 499, 498, 493, 494, 490, 497, 497, 495, 495, 492, 489, 497, 499, 492, 495, 499, 496, 493, 493, 487, 488, 496, 498, 496, 494, 494, 494, 495, 495, 500, 493, 496, 496, 493, 494, 493, 496, 493, 495, 496, 494, 495, 493, 494, 497, 497, 496, 495, 495, 493, 495, 495, 494, 497, 497, 494]"
18,rest,"[492, 493, 495, 494, 495, 495, 497, 496, 495, 494, 495, 497, 495, 494, 494, 494, 496, 494, 496, 494, 495, 495, 495, 495, 495, 496, 495, 495, 494, 495, 496, 494, 495, 494, 494, 494, 494, 494, 495, 496, 494, 494, 495, 494, 494, 495, 496, 494, 494, 494, 494, 494, 494, 495, 495, 494, 495, 493, 493, 495, 494, 494, 496, 494, 494, 495, 495, 494, 494, 495, 494, 494, 494, 494, 495, 495, 494, 494, 494, 494, 494, 495, 494, 494, 495, 495, 494, 494, 494, 494, 494, 493, 494, 494, 495, 494, 494, 495, 495, 495, 493, 493, 494, 494, 494, 494, 494, 495, 494, 495, 493, 494, 494, 494, 494, 493, 494, 495, 493, 494, 494, 494, 494, 494, 493, 494, 494, 494, 493, 494, 494, 494, 494, 494, 494, 494, 494, 494, 494, 494, 494, 493, 494, 494, 494, 494, 494, 494, 494, 494, 494, 495, 494, 494, 494, 494, 494, 494, 494, 494, 494, 495, 494, 494, 494, 494, 494, 494, 494, 494, 494, 494, 494, 494, 494, 494, 494, 494, 493, 493, 494, 494, 493, 494, 493, 494, 495, 495, 494, 494, 494, 494, 493, 494, 495, 494, 494, 494, 494, 494, 494, 494, 493, 493, 494, 494, 494, 494, 494, 494, 494, 494, 493, 494, 493, 494, 494, 493, 495, 494, 493, 493, 494, 494, 494, 494, 493, 493, 493, 493, 494, 494, 493, 493, 494, 495, 494, 493, 494, 494, 494, 494, 494, 494, 493, 494, 493, 494, 494, 494, 493, 494, 494, 494, 494, 494, 494, 494, 494, 494, 493, 493, 494, 494, 494, 492, 493, 493, 493, 494, 494, 493, 494, 494, 494, 493, 494, 494, 493, 494, 494, 494, 493, 494, 493, 494, 494, 494, 493, 494, 494, 493, 494, 494, 492, 494, 494, 494, 493, 494, 494, 494, 494, 493, 493, 494, 493, 493, 493, 492, 493, 495, 495, 492, 493, 494, 493, 494, 493, 493, 493, 494, 493, 493, 494, 493, 494, 493, 494, 495, 494, 494, 494, 493, 494, 494, 493, 494, 494, 493, 494, 494, 493, 493, 494, 493, 494, 494, 493, 492, 493, 494, 494, 494, 494, 493, 493, 494, 495, 494, 494, 493, 494, 493, 493, 493, 493, 494, 494, 494, 493, 493, 493, 493, 493, 493, 495, 494, 494, 493, 492, 493, 494, 492, 493, 495, 493, 494, 494, 494, 493, 494, 494, 494, 493, 494, 493, 494, 493, 493, 494, 493, 494, 494, 494, 494, 494, 494, 494, 494, 494, 494, 494, 494, 495, 493, 493, 494, 494, 493, 494, 494, 493, 494, 494, 493, 494, 494, 493, 494, 494, 494, 494, 494, 493, 493, 494, 494, 494, 494, 493, 494, 494, 494, 494, 494, 494, 493, 493, 494, 494, 494, 494, 493, 493, 494, 494, 493, 494, 494, 495, 494, 494, 494, 493, 494, 494, 493, 493, 494, 493, 494, 493, 493, 494, 494, 494, 494, 494, 493, 493, 494, 494, 494, 494, 494, 493, 494, 493, 494, 493, 494, 494, 494, 494, 494, 494, 494, 494, 493, 494, 494, 493, 494, 494, 494, 494, 494, 494, 493, 494, 493, 492, 494, 494, 494, 494, 494, 494, 494, 494, 493, 494, 494, 494, 493, 493, 493, 494, 495, 494, 493, 494, 495, 494, 493, 494, 494, 494, 493, 492, 493, 494, 494, 494, 494, 493, 494, 494, 493, 494, 494, 494, 493, 494, 494, 493, 493, 494, 493, 493, 494, 494, 493, 494, 494, 494, 494, 495, 493, 493, 494, 493, 493, 494, 494]"
19,right,"[494, 494, 493, 494, 494, 494, 494, 494, 494, 494, 494, 494, 493, 493, 494, 494, 493, 494, 494, 493, 494, 494, 494, 494, 494, 494, 494, 493, 494, 494, 494, 494, 494, 495, 494, 494, 494, 494, 494, 494, 494, 493, 494, 494, 494, 494, 494, 494, 492, 494, 494, 494, 494, 494, 494, 494, 494, 494, 494, 494, 493, 494, 494, 494, 494, 494, 493, 494, 494, 494, 492, 494, 494, 494, 493, 494, 494, 493, 494, 494, 494, 494, 494, 493, 493, 494, 494, 494, 494, 494, 493, 494, 494, 494, 494, 494, 494, 494, 494, 494, 494, 494, 493, 493, 494, 493, 494, 497, 493, 493, 495, 494, 494, 494, 494, 494, 494, 493, 493, 495, 494, 494, 495, 495, 494, 495, 494, 494, 494, 494, 494, 494, 494, 494, 494, 495, 495, 495, 492, 494, 493, 494, 492, 495, 494, 496, 493, 495, 494, 494, 495, 496, 494, 493, 494, 494, 494, 492, 493, 496, 494, 494, 494, 498, 495, 495, 494, 497, 494, 494, 495, 493, 495, 492, 494, 494, 497, 492, 491, 498, 498, 499, 501, 489, 492, 494, 492, 493, 493, 491, 496, 493, 494, 498, 493, 500, 487, 499, 493, 499, 486, 492, 492, 494, 494, 488, 492, 492, 492, 495, 494, 494, 491, 494, 494, 498, 496, 498, 500, 486, 495, 494, 494, 496, 494, 492, 495, 500, 491, 495, 491, 495, 499, 489, 490, 493, 488, 493, 502, 486, 492, 493, 488, 493, 499, 497, 493, 495, 492, 490, 498, 496, 494, 494, 494, 501, 491, 494, 498, 498, 494, 494, 495, 489, 493, 494, 495, 498, 496, 493, 498, 493, 491, 493, 500, 494, 493, 497, 494, 493, 496, 499, 491, 498, 497, 495, 498, 494, 499, 495, 487, 491, 496, 500, 494, 489, 493, 493, 501, 487, 490, 494, 498, 493, 496, 496, 493, 499, 491, 497, 495, 492, 493, 493, 495, 494, 495, 493, 493, 490, 491, 496, 492, 498, 494, 497, 487, 496, 495, 493, 492, 492, 498, 491, 497, 494, 490, 498, 494, 499, 490, 494, 494, 496, 495, 492, 495, 495, 492, 494, 495, 493, 496, 499, 494, 494, 494, 496, 493, 495, 495, 497, 496, 496, 496, 491, 497, 496, 494, 496, 492, 492, 496, 494, 491, 493, 494, 494, 494, 495, 493, 496, 497, 493, 494, 497, 494, 492, 494, 496, 496, 496, 494, 494, 494, 495, 494, 494, 494, 494, 495, 496, 495, 497, 494, 494, 494, 497, 495, 494, 494, 494, 496, 496, 493, 497, 497, 493, 494, 497, 492, 494, 496, 496, 495, 494, 493, 494, 494, 496, 495, 496, 492, 495, 496, 494, 494, 495, 494, 494, 495, 494, 494, 493, 496, 494, 494, 494, 497, 496, 495, 492, 494, 494, 499, 494, 496, 494, 495, 497, 494, 495, 493, 494, 494, 494, 494, 494, 495, 494, 495, 494, 494, 494, 494, 494, 496, 495, 495, 496, 492, 496, 494, 494, 494, 494, 493, 495, 495, 494, 494, 495, 494, 494, 494, 492, 497, 495, 497, 494, 494, 495, 494, 494, 494, 493, 494, 495, 495, 494, 494, 492, 496, 494, 494, 493, 495, 494, 493, 494, 494, 495, 494, 494, 494, 495, 495, 494, 495, 494, 491, 492, 495, 494, 494, 494, 494, 494, 492, 494, 494, 494, 494, 494, 494, 494, 494, 494, 494, 492, 494, 495, 493, 493, 494, 494, 493, 494, 494, 495, 493, 494, 494, 494, 495, 495, 493, 494, 494, 492, 493, 493, 492, 495, 494, 495, 494]"
20,rest,"[493, 495, 494, 495, 494, 494, 494, 494, 494, 494, 493, 494, 494, 494, 494, 493, 494, 493, 493, 493, 493, 495, 494, 494, 493, 494, 494, 494, 493, 494, 495, 493, 493, 494, 494, 494, 494, 493, 494, 495, 494, 494, 493, 494, 493, 494, 494, 493, 493, 493, 493, 493, 494, 494, 494, 494, 494, 493, 494, 495, 493, 494, 494, 493, 494, 494, 493, 493, 494, 494, 494, 494, 494, 492, 494, 494, 494, 494, 494, 494, 494, 494, 493, 494, 494, 494, 493, 493, 494, 493, 494, 494, 494, 495, 494, 494, 493, 494, 495, 494, 493, 492, 494, 494, 494, 494, 494, 494, 495, 495, 494, 496, 495, 492, 493, 493, 492, 495, 493, 495, 494, 494, 495, 494, 494, 494, 494, 493, 494, 494, 493, 494, 494, 494, 494, 493, 494, 493, 494, 494, 492, 494, 494, 494, 494, 494, 494, 495, 494, 492, 493, 494, 492, 494, 494, 493, 493, 494, 492, 493, 495, 494, 494, 494, 494, 494, 494, 494, 492, 493, 495, 494, 494, 492, 493, 494, 495, 494, 494, 493, 495, 493, 494, 494, 493, 493, 494, 493, 494, 494, 494, 494, 494, 493, 495, 493, 494, 494, 494, 494, 493, 494, 494, 494, 494, 494, 494, 494, 493, 493, 493, 494, 494, 493, 494, 494, 493, 493, 494, 494, 494, 494, 494, 494, 493, 494, 494, 494, 495, 494, 492, 494, 494, 494, 494, 494, 494, 492, 493, 494, 495, 494, 493, 494, 494, 494, 494, 493, 492, 493, 495, 493, 495, 494, 494, 494, 495, 493, 492, 489, 492, 495, 496, 495, 494, 494, 494, 494, 494, 493, 493, 493, 494, 494, 494, 494, 494, 493, 492, 494, 495, 494, 493, 493, 492, 494, 494, 493, 493, 493, 494, 494, 494, 494, 493, 494, 493, 494, 495, 493, 493, 494, 495, 493, 494, 494, 493, 493, 493, 493, 493, 495, 494, 494, 494, 495, 493, 494, 494, 493, 494, 495, 493, 493, 493, 493, 494, 494, 494, 493, 494, 494, 493, 494, 494, 494, 492, 494, 494, 494, 495, 493, 494, 493, 494, 493, 494, 493, 493, 496, 494, 493, 494, 494, 493, 494, 494, 494, 494, 494, 494, 493, 494, 494, 494, 494, 494, 493, 494, 494, 494, 494, 494, 494, 494, 494, 493, 493, 494, 494, 494, 494, 494, 491, 493, 494, 494, 495, 495, 493, 492, 493, 495, 494, 494, 494, 492, 494, 495, 494, 494, 494, 494, 494, 494, 494, 494, 494, 493, 494, 493, 494, 494, 494, 494, 493, 494, 494, 494, 493, 493, 495, 494, 494, 493, 493, 494, 494, 493, 493, 494, 495, 494, 494, 494, 493, 494, 494, 493, 493, 494, 494, 494, 493, 492, 495, 494, 494, 494, 494, 494, 494, 494, 494, 493, 494, 494, 493, 494, 494, 494, 493, 492, 494, 495, 495, 494, 493, 494, 494, 494, 494, 494, 493, 494, 494, 494, 494, 494, 494, 494, 493, 494, 494, 495, 493, 494, 493, 493, 494, 494, 494, 494, 493, 494, 494, 494, 494, 494, 494, 493, 494, 494, 495, 494, 494, 494, 494, 494, 494, 494, 493, 494, 495, 494, 494, 494, 493, 494, 494, 495, 494, 494, 493, 494, 495, 494, 494, 494, 494, 493, 494, 495, 494, 494, 494, 494, 494, 493, 495, 494, 494, 495, 493, 492, 494, 494, 496, 494, 494, 494, 495, 494, 494, 493, 494, 495, 494, 494, 494, 492, 494, 496, 495, 494, 493, 494, 494, 494, 494, 494, 494, 494, 494, 495, 493, 494]"
21,right,"[494, 494, 493, 494, 493, 494, 495, 494, 495, 494, 494, 494, 494, 494, 494, 494, 494, 494, 494, 494, 494, 493, 494, 494, 495, 494, 494, 494, 494, 494, 494, 494, 494, 493, 494, 494, 494, 495, 494, 495, 493, 493, 494, 494, 495, 494, 493, 494, 494, 492, 494, 494, 493, 493, 494, 494, 494, 494, 494, 494, 494, 494, 493, 493, 494, 494, 494, 494, 494, 493, 494, 494, 494, 494, 494, 493, 494, 494, 494, 494, 494, 494, 494, 494, 494, 495, 495, 494, 494, 494, 493, 493, 494, 494, 492, 495, 495, 493, 493, 494, 495, 494, 494, 494, 493, 494, 494, 493, 494, 493, 494, 494, 494, 494, 495, 494, 494, 494, 494, 494, 494, 494, 494, 493, 494, 494, 493, 494, 494, 494, 493, 494, 494, 494, 495, 494, 494, 494, 494, 494, 494, 494, 494, 495, 495, 494, 493, 494, 494, 494, 495, 494, 494, 494, 494, 494, 494, 493, 494, 494, 494, 495, 494, 494, 494, 494, 495, 495, 493, 494, 494, 494, 496, 494, 493, 493, 493, 494, 494, 493, 495, 494, 496, 494, 492, 495, 493, 494, 495, 493, 494, 492, 495, 493, 494, 496, 495, 494, 496, 495, 491, 493, 496, 492, 493, 495, 493, 494, 495, 493, 496, 493, 494, 493, 495, 492, 494, 494, 494, 494, 493, 495, 493, 494, 493, 494, 494, 493, 494, 494, 493, 493, 493, 493, 493, 495, 496, 491, 491, 494, 495, 492, 493, 495, 493, 497, 497, 493, 495, 495, 494, 490, 500, 492, 495, 494, 494, 496, 497, 496, 493, 492, 494, 494, 491, 499, 492, 492, 495, 494, 495, 491, 496, 496, 496, 496, 495, 492, 492, 495, 494, 496, 496, 496, 496, 495, 494, 494, 495, 493, 496, 494, 495, 496, 498, 492, 497, 494, 494, 496, 492, 494, 494, 495, 490, 496, 499, 493, 493, 495, 494, 494, 491, 494, 495, 491, 498, 492, 496, 494, 494, 493, 495, 495, 494, 491, 495, 495, 494, 502, 492, 496, 500, 494, 493, 493, 494, 494, 496, 496, 495, 495, 494, 496, 493, 496, 493, 499, 490, 491, 501, 496, 495, 492, 495, 495, 499, 492, 495, 496, 495, 495, 495, 490, 493, 497, 492, 494, 493, 493, 493, 495, 495, 494, 497, 499, 492, 495, 497, 494, 495, 497, 494, 492, 494, 494, 492, 495, 496, 496, 494, 495, 496, 494, 495, 494, 496, 495, 494, 494, 495, 494, 494, 493, 494, 498, 496, 491, 494, 494, 493, 496, 499, 495, 494, 493, 494, 497, 495, 494, 494, 494, 495, 494, 492, 492, 497, 493, 493, 492, 494, 495, 494, 495, 494, 496, 495, 494, 494, 494, 494, 494, 496, 496, 494, 494, 496, 494, 493, 494, 494, 495, 494, 495, 494, 494, 494, 496, 496, 496, 494, 494, 494, 493, 494, 494, 495, 495, 494, 494, 494, 495, 494, 494, 494, 493, 495, 494, 494, 494, 495, 495, 494, 494, 495, 494, 494, 494, 494, 494, 494, 495, 494, 496, 494, 494, 495, 495, 494, 494, 495, 494, 494, 494, 493, 496, 495, 494, 495, 494, 495, 494, 494, 495, 495, 495, 495, 494, 494, 494, 494, 495, 494, 494, 496, 494, 494, 494, 494, 495, 494, 495, 494, 494, 495, 495, 494, 495, 495, 494, 494, 494, 494, 495, 495, 495, 495, 494, 494, 494, 495, 494, 494, 495, 494, 494, 494, 495, 494, 494, 494, 494, 494, 495, 494, 494, 494, 495, 494, 495, 495, 494, 494, 495, 494, 494, 494]"
22,rest,"[493, 495, 494, 493, 494, 495, 495, 494, 495, 494, 494, 495, 494, 494, 494, 495, 494, 494, 494, 495, 495, 494, 494, 494, 494, 494, 494, 494, 494, 494, 494, 494, 494, 494, 495, 494, 495, 495, 493, 494, 494, 494, 494, 495, 495, 494, 494, 494, 494, 494, 494, 495, 495, 495, 494, 494, 494, 494, 494, 494, 495, 494, 494, 495, 494, 494, 494, 494, 494, 495, 494, 494, 494, 496, 494, 494, 495, 494, 494, 494, 494, 494, 494, 494, 495, 494, 494, 495, 494, 494, 494, 494, 494, 494, 495, 494, 493, 494, 494, 494, 494, 494, 494, 494, 494, 494, 494, 495, 495, 494, 493, 494, 496, 494, 494, 493, 494, 494, 495, 493, 494, 495, 494, 495, 494, 493, 494, 495, 495, 494, 494, 494, 494, 494, 494, 494, 495, 494, 494, 493, 494, 494, 494, 494, 494, 495, 493, 493, 494, 495, 496, 494, 493, 493, 494, 495, 494, 494, 494, 494, 493, 493, 494, 495, 494, 494, 495, 493, 494, 494, 494, 495, 494, 494, 495, 494, 493, 494, 494, 495, 494, 494, 494, 493, 494, 495, 494, 492, 493, 495, 495, 495, 494, 494, 494, 494, 494, 496, 495, 494, 494, 494, 493, 494, 494, 494, 493, 494, 494, 494, 493, 494, 494, 495, 494, 494, 494, 493, 494, 495, 495, 493, 495, 494, 492, 494, 495, 495, 494, 494, 494, 492, 494, 494, 493, 494, 495, 494, 494, 494, 494, 493, 493, 495, 494, 495, 494, 494, 494, 492, 493, 494, 495, 494, 494, 494, 495, 493, 493, 493, 494, 495, 494, 494, 494, 492, 493, 496, 495, 494, 494, 494, 493, 494, 492, 491, 494, 496, 494, 494, 495, 494, 493, 496, 494, 495, 493, 494, 493, 493, 494, 494, 493, 493, 494, 493, 494, 493, 494, 494, 493, 494, 494, 494, 494, 494, 494, 493, 494, 495, 494, 493, 491, 494, 494, 495, 494, 494, 493, 494, 493, 494, 494, 494, 493, 494, 494, 494, 493, 493, 492, 494, 496, 493, 494, 494, 494, 494, 494, 494, 493, 494, 494, 494, 494, 493, 492, 493, 494, 493, 494, 494, 493, 494, 494, 494, 494, 494, 494, 493, 492, 494, 495, 494, 494, 493, 494, 494, 492, 494, 494, 493, 494, 494, 494, 493, 493, 494, 494, 494, 494, 492, 493, 494, 495, 494, 494, 493, 493, 495, 494, 494, 494, 494, 493, 494, 495, 494, 494, 493, 493, 493, 494, 493, 494, 494, 494, 493, 494, 493, 494, 494, 493, 493, 494, 494, 494, 493, 493, 493, 494, 494, 494, 494, 494, 494, 494, 493, 493, 493, 494, 494, 494, 493, 493, 494, 493, 494, 494, 492, 494, 494, 494, 494, 494, 493, 493, 494, 494, 494, 494, 494, 493, 494, 494, 493, 493, 494, 494, 493, 493, 493, 492, 494, 494, 494, 493, 494, 493, 494, 494, 494, 494, 494, 494, 494, 494, 493, 493, 494, 494, 493, 493, 494, 494, 493, 493, 493, 494, 494, 493, 494, 492, 494, 494, 493, 493, 494, 494, 494, 494, 494, 494, 494, 494, 493, 493, 494, 494, 494, 494, 494, 494, 494, 494, 493, 494, 494, 494, 493, 493, 494, 493, 494, 494, 493, 493, 494, 494, 493, 494, 494, 494, 493, 494, 493, 494, 494, 492, 494, 494, 494, 494, 494, 493, 493, 494, 494, 494, 494, 494, 494, 494, 494, 493, 494, 494, 494, 493, 493, 494, 494, 494, 493, 493, 494, 494, 493, 493, 494, 494, 494, 494, 493, 493, 494]"
23,right,"[493, 494, 495, 494, 493, 493, 493, 494, 494, 494, 494, 494, 493, 493, 493, 494, 494, 494, 494, 494, 494, 494, 494, 494, 494, 494, 493, 492, 494, 495, 494, 494, 494, 493, 493, 495, 494, 494, 494, 493, 493, 494, 494, 494, 494, 494, 493, 494, 494, 494, 493, 493, 494, 495, 494, 493, 494, 494, 493, 494, 494, 494, 494, 493, 493, 494, 495, 494, 493, 494, 494, 493, 493, 495, 494, 494, 494, 494, 494, 494, 493, 493, 494, 494, 494, 493, 494, 493, 494, 494, 494, 494, 494, 493, 493, 494, 494, 493, 494, 494, 494, 494, 494, 493, 494, 495, 493, 494, 494, 493, 494, 494, 494, 494, 495, 494, 494, 494, 494, 494, 494, 495, 494, 494, 493, 494, 494, 494, 494, 494, 494, 494, 494, 494, 495, 494, 494, 494, 493, 494, 493, 494, 494, 495, 494, 494, 494, 494, 495, 494, 494, 494, 494, 494, 494, 494, 494, 494, 494, 495, 494, 496, 493, 494, 494, 495, 495, 494, 494, 494, 494, 494, 495, 495, 494, 494, 494, 495, 494, 495, 494, 494, 496, 494, 495, 494, 495, 494, 493, 494, 497, 495, 494, 494, 493, 493, 494, 495, 494, 494, 494, 494, 494, 493, 494, 493, 494, 494, 493, 493, 494, 494, 493, 494, 496, 494, 493, 492, 494, 494, 494, 495, 494, 493, 494, 494, 498, 493, 493, 496, 495, 491, 494, 499, 491, 494, 496, 492, 497, 496, 489, 495, 497, 490, 494, 493, 493, 496, 493, 491, 497, 491, 494, 496, 494, 493, 497, 495, 495, 494, 493, 495, 493, 494, 498, 496, 493, 490, 493, 493, 491, 497, 494, 490, 492, 496, 495, 493, 498, 493, 494, 494, 494, 493, 495, 496, 496, 493, 492, 499, 494, 496, 493, 494, 494, 492, 495, 493, 496, 494, 495, 496, 491, 496, 496, 495, 495, 494, 495, 496, 496, 493, 493, 493, 499, 492, 497, 501, 489, 495, 498, 494, 495, 499, 494, 494, 494, 494, 498, 495, 496, 493, 494, 498, 493, 494, 495, 494, 494, 490, 494, 495, 494, 496, 495, 493, 492, 497, 496, 495, 496, 494, 495, 495, 496, 489, 498, 494, 494, 489, 496, 496, 493, 493, 492, 497, 490, 495, 495, 494, 502, 495, 492, 493, 494, 496, 495, 494, 493, 494, 493, 494, 493, 496, 496, 498, 499, 490, 496, 496, 498, 493, 496, 493, 494, 495, 494, 495, 494, 495, 490, 494, 497, 496, 494, 495, 497, 495, 492, 495, 493, 495, 493, 495, 499, 494, 494, 490, 495, 497, 492, 493, 496, 494, 495, 494, 494, 496, 496, 496, 494, 492, 494, 492, 495, 493, 492, 494, 496, 494, 493, 493, 494, 495, 496, 496, 496, 496, 495, 492, 495, 496, 498, 493, 494, 497, 496, 497, 494, 496, 494, 493, 494, 494, 494, 493, 492, 496, 495, 496, 494, 496, 495, 495, 494, 495, 496, 494, 495, 494, 494, 491, 494, 494, 492, 494, 493, 495, 498, 495, 496, 492, 495, 494, 494, 494, 494, 495, 490, 495, 498, 494, 494, 493, 494, 495, 494, 497, 496, 494, 493, 494, 492, 493, 496, 495, 495, 494, 497, 495, 494, 493, 495, 495, 494, 494, 494, 495, 495, 496, 496, 494, 493, 491, 493, 496, 495, 494, 494, 494, 493, 494, 495, 494, 498, 493, 495, 491, 494, 494, 493, 495, 497, 493, 493, 494, 493, 495, 494, 495, 494, 494, 499, 495, 493, 494, 494, 493, 495, 493, 493, 494, 496, 494, 494, 495, 494]"
24,rest,"[493, 496, 494, 494, 495, 494, 494, 493, 494, 494, 495, 494, 494, 493, 492, 496, 495, 495, 494, 493, 494, 494, 494, 494, 494, 494, 494, 494, 494, 492, 494, 494, 493, 492, 495, 494, 494, 494, 494, 495, 493, 493, 493, 494, 494, 494, 493, 494, 494, 494, 494, 493, 494, 494, 494, 494, 494, 494, 494, 494, 494, 493, 493, 494, 494, 494, 495, 493, 495, 494, 494, 494, 494, 494, 493, 494, 494, 494, 494, 494, 493, 495, 494, 494, 495, 494, 494, 493, 494, 494, 494, 494, 495, 493, 494, 494, 493, 495, 494, 494, 494, 494, 494, 493, 494, 494, 494, 494, 495, 494, 494, 494, 494, 494, 494, 493, 495, 494, 493, 494, 495, 493, 494, 494, 493, 494, 496, 494, 494, 494, 494, 494, 494, 494, 494, 494, 494, 494, 493, 494, 494, 493, 493, 493, 494, 495, 495, 494, 494, 494, 494, 494, 494, 494, 494, 494, 494, 493, 493, 494, 495, 494, 493, 493, 494, 494, 494, 494, 493, 494, 494, 494, 494, 494, 495, 493, 493, 494, 494, 494, 494, 493, 494, 493, 494, 494, 493, 492, 494, 495, 495, 494, 493, 494, 494, 494, 494, 493, 494, 493, 494, 494, 494, 495, 494, 492, 494, 495, 495, 495, 494, 493, 494, 494, 494, 494, 494, 493, 494, 493, 494, 494, 494, 495, 494, 492, 494, 494, 494, 495, 494, 494, 494, 494, 494, 494, 493, 494, 494, 493, 493, 494, 494, 493, 494, 494, 493, 494, 495, 494, 494, 494, 494, 493, 495, 494, 495, 493, 494, 494, 493, 495, 494, 494, 494, 494, 494, 494, 494, 493, 495, 494, 493, 494, 494, 494, 494, 494, 493, 493, 494, 493, 494, 494, 494, 495, 495, 494, 493, 493, 494, 495, 494, 494, 493, 494, 494, 495, 494, 494, 493, 494, 494, 494, 493, 494, 494, 494, 494, 494, 495, 493, 493, 493, 495, 495, 494, 494, 494, 494, 494, 494, 494, 493, 494, 495, 494, 493, 494, 493, 495, 495, 494, 493, 494, 494, 494, 494, 494, 493, 494, 494, 494, 495, 492, 491, 494, 495, 495, 494, 494, 493, 493, 496, 494, 494, 494, 494, 495, 493, 494, 494, 494, 494, 494, 493, 494, 494, 493, 494, 494, 494, 494, 494, 494, 494, 494, 492, 492, 496, 494, 494, 495, 494, 493, 494, 494, 494, 494, 495, 494, 492, 494, 494, 494, 494, 494, 493, 494, 494, 494, 496, 494, 493, 494, 495, 494, 494, 494, 494, 494, 494, 494, 493, 495, 492, 493, 495, 495, 494, 494, 494, 494, 493, 494, 494, 494, 494, 494, 494, 495, 494, 494, 494, 494, 494, 494, 495, 494, 495, 495, 493, 493, 493, 494, 496, 495, 494, 494, 494, 494, 494, 496, 494, 493, 493, 495, 494, 494, 494, 494, 494, 494, 494, 494, 493, 495, 494, 494, 494, 494, 494, 494, 494, 493, 494, 494, 494, 495, 495, 494, 494, 494, 494, 495, 494, 494, 493, 494, 494, 494, 494, 494, 495, 495, 494, 494, 494, 494, 494, 494, 493, 494, 494, 495, 494, 494, 495, 495, 493, 494, 495, 494, 495, 494, 495, 493, 494, 494, 494, 495, 494, 494, 495, 494, 494, 494, 494, 494, 494, 494, 494, 494, 494, 494, 494, 495, 494, 494, 493, 493, 495, 495, 494, 494, 495, 494, 494, 494, 493, 494, 495, 494, 494, 494, 494, 494, 493, 494, 494, 494, 494, 494, 493, 494, 496, 494, 494, 493, 493, 494, 495, 494, 494, 493, 494, 494]"
25,right,"[494, 494, 494, 494, 495, 493, 494, 494, 494, 494, 495, 494, 495, 494, 494, 493, 494, 494, 493, 494, 494, 494, 494, 494, 494, 493, 494, 494, 494, 495, 494, 493, 495, 494, 494, 494, 495, 494, 493, 494, 494, 495, 494, 494, 494, 493, 493, 494, 495, 494, 494, 494, 494, 494, 494, 494, 494, 493, 495, 494, 494, 494, 494, 493, 494, 493, 495, 494, 494, 494, 494, 494, 494, 494, 494, 495, 494, 494, 494, 494, 495, 494, 493, 494, 494, 494, 494, 494, 494, 494, 494, 494, 493, 495, 495, 494, 494, 494, 494, 493, 494, 494, 494, 495, 494, 494, 494, 494, 494, 494, 494, 493, 494, 493, 493, 494, 494, 493, 494, 494, 494, 493, 494, 494, 494, 494, 494, 494, 494, 493, 493, 494, 495, 494, 494, 494, 494, 493, 494, 494, 494, 493, 494, 494, 494, 495, 494, 494, 494, 493, 494, 494, 494, 494, 495, 494, 493, 493, 495, 494, 494, 494, 493, 494, 495, 493, 493, 495, 494, 493, 496, 495, 494, 494, 494, 494, 495, 494, 493, 495, 493, 494, 494, 494, 494, 493, 495, 496, 495, 493, 491, 494, 495, 495, 496, 494, 494, 494, 493, 494, 493, 494, 494, 494, 494, 494, 494, 494, 495, 494, 495, 494, 495, 493, 494, 494, 494, 494, 496, 491, 490, 493, 493, 492, 494, 494, 496, 494, 495, 495, 494, 491, 494, 495, 494, 493, 496, 498, 492, 494, 494, 494, 498, 494, 493, 494, 495, 495, 493, 495, 494, 496, 489, 498, 494, 492, 495, 496, 494, 493, 494, 496, 501, 496, 497, 495, 495, 495, 492, 495, 492, 496, 496, 495, 498, 499, 489, 494, 495, 495, 499, 494, 493, 496, 494, 497, 495, 494, 492, 493, 495, 499, 495, 493, 497, 493, 493, 496, 494, 494, 491, 491, 491, 493, 495, 495, 493, 495, 493, 494, 493, 494, 492, 496, 496, 494, 495, 493, 493, 496, 496, 495, 492, 493, 492, 496, 500, 494, 495, 496, 495, 489, 495, 493, 497, 494, 496, 495, 494, 495, 497, 495, 493, 495, 494, 498, 495, 497, 496, 496, 492, 494, 496, 495, 491, 494, 494, 493, 493, 495, 493, 489, 494, 495, 498, 496, 497, 496, 495, 496, 493, 497, 493, 497, 494, 494, 494, 496, 494, 496, 490, 493, 494, 489, 495, 498, 494, 490, 493, 499, 495, 494, 494, 496, 492, 496, 494, 498, 494, 492, 492, 495, 495, 496, 493, 495, 499, 494, 492, 489, 491, 496, 498, 490, 499, 496, 495, 491, 494, 496, 492, 496, 498, 497, 494, 494, 497, 501, 495, 494, 495, 493, 494, 499, 490, 494, 497, 499, 494, 489, 494, 495, 501, 490, 493, 494, 497, 494, 494, 494, 486, 499, 496, 495, 500, 494, 491, 494, 494, 497, 492, 493, 495, 498, 493, 486, 489, 492, 495, 489, 494, 496, 494, 489, 492, 496, 494, 494, 494, 493, 496, 495, 491, 496, 497, 494, 498, 495, 493, 494, 494, 494, 494, 497, 495, 494, 496, 493, 494, 494, 493, 492, 494, 495, 496, 495, 495, 495, 496, 495, 494, 495, 495, 494, 495, 495, 494, 493, 493, 494, 496, 495, 496, 492, 493, 495, 495, 494, 495, 495, 492, 494, 495, 494, 493, 495, 494, 494, 495, 495, 494, 494, 494, 494, 494, 493, 493, 493, 496, 495, 493, 494, 495, 494, 496, 494, 494, 494, 494, 495, 495, 494, 495, 495, 494, 494, 494, 495, 494, 494, 495, 494, 494, 496, 494, 494, 493]"
26,rest,"[496, 494, 494, 494, 494, 494, 495, 494, 494, 495, 494, 494, 494, 494, 494, 494, 494, 494, 494, 495, 494, 494, 494, 494, 494, 495, 494, 494, 494, 495, 494, 494, 494, 494, 495, 494, 494, 494, 496, 494, 494, 494, 494, 495, 494, 494, 494, 494, 494, 494, 494, 494, 494, 495, 494, 494, 494, 494, 494, 494, 494, 494, 494, 494, 494, 495, 495, 495, 494, 494, 494, 494, 494, 494, 494, 494, 494, 495, 494, 494, 494, 494, 494, 495, 494, 493, 494, 494, 494, 494, 494, 494, 494, 494, 494, 494, 494, 494, 494, 495, 494, 494, 494, 493, 494, 494, 495, 494, 494, 494, 494, 494, 494, 493, 492, 494, 494, 495, 495, 493, 494, 494, 494, 494, 495, 494, 494, 494, 494, 494, 494, 494, 494, 494, 493, 493, 494, 494, 494, 494, 495, 494, 493, 493, 493, 494, 494, 494, 494, 495, 495, 494, 493, 494, 494, 493, 494, 494, 493, 494, 495, 493, 493, 494, 494, 494, 494, 493, 493, 494, 494, 494, 494, 494, 494, 494, 494, 494, 494, 494, 493, 494, 494, 494, 493, 493, 494, 493, 494, 494, 494, 494, 494, 494, 493, 494, 494, 493, 494, 493, 493, 495, 494, 492, 494, 494, 494, 495, 494, 494, 493, 494, 494, 494, 493, 494, 493, 492, 493, 494, 494, 494, 494, 494, 493, 493, 494, 494, 493, 494, 494, 494, 494, 493, 493, 493, 494, 495, 494, 493, 494, 494, 493, 492, 493, 495, 494, 494, 494, 494, 492, 494, 495, 494, 494, 494, 494, 494, 492, 494, 495, 493, 493, 494, 494, 494, 495, 494, 493, 492, 494, 494, 494, 494, 493, 494, 494, 494, 494, 493, 494, 493, 492, 493, 494, 493, 494, 494, 494, 494, 494, 494, 493, 492, 494, 494, 494, 494, 493, 494, 494, 494, 494, 493, 494, 492, 494, 494, 494, 495, 493, 492, 494, 496, 494, 494, 493, 493, 494, 494, 494, 494, 494, 494, 494, 492, 494, 494, 494, 495, 494, 493, 494, 496, 493, 494, 494, 494, 494, 494, 492, 494, 495, 494, 494, 493, 493, 494, 494, 493, 492, 494, 496, 494, 494, 494, 494, 494, 494, 494, 494, 494, 494, 492, 494, 494, 494, 494, 494, 493, 494, 495, 494, 494, 494, 493, 494, 494, 494, 494, 494, 494, 492, 494, 494, 493, 494, 494, 494, 494, 494, 493, 493, 494, 494, 494, 495, 494, 492, 493, 495, 494, 494, 494, 494, 494, 494, 494, 494, 494, 494, 494, 494, 493, 493, 495, 494, 494, 494, 493, 494, 494, 494, 494, 494, 494, 493, 493, 494, 495, 494, 494, 494, 493, 494, 494, 494, 494, 494, 494, 493, 494, 492, 492, 496, 495, 494, 494, 494, 494, 493, 493, 496, 494, 495, 494, 494, 494, 494, 494, 494, 492, 492, 495, 495, 494, 494, 494, 494, 494, 493, 493, 494, 494, 494, 494, 494, 494, 494, 494, 492, 493, 495, 495, 494, 494, 494, 493, 494, 493, 494, 494, 494, 494, 494, 494, 493, 494, 494, 494, 494, 493, 495, 494, 494, 494, 494, 493, 494, 493, 494, 495, 494, 494, 494, 494, 494, 494, 494, 494, 493, 494, 494, 494, 494, 494, 494, 494, 494, 494, 494, 494, 494, 494, 494, 494, 493, 494, 493, 493, 495, 494, 494, 494, 494, 494, 492, 494, 494, 494, 495, 494, 494, 494, 493, 493, 494, 494, 494, 494, 494, 494, 494, 491, 494, 494, 494, 494, 494, 494, 494, 493, 493, 494, 494, 494]"
27,right,"[494, 494, 492, 493, 494, 494, 494, 494, 494, 494, 494, 494, 494, 493, 494, 494, 494, 493, 493, 493, 494, 494, 494, 494, 494, 494, 494, 494, 493, 494, 494, 494, 495, 493, 493, 494, 494, 494, 494, 493, 493, 496, 494, 494, 494, 494, 494, 494, 494, 494, 492, 494, 494, 494, 495, 494, 494, 493, 494, 494, 494, 494, 494, 494, 493, 493, 494, 495, 494, 493, 495, 494, 493, 494, 494, 494, 494, 494, 494, 494, 494, 494, 494, 494, 494, 494, 494, 494, 494, 494, 494, 493, 494, 494, 494, 494, 494, 494, 494, 495, 494, 494, 494, 494, 494, 493, 493, 494, 495, 494, 494, 494, 494, 494, 495, 494, 494, 494, 495, 493, 493, 494, 494, 495, 493, 495, 495, 494, 495, 494, 494, 494, 494, 494, 495, 494, 494, 495, 494, 494, 494, 494, 494, 495, 495, 493, 495, 495, 494, 495, 494, 494, 495, 494, 496, 494, 494, 495, 495, 495, 495, 494, 495, 494, 494, 494, 494, 494, 494, 494, 493, 495, 494, 494, 494, 495, 495, 495, 494, 494, 494, 497, 496, 497, 493, 493, 494, 496, 492, 493, 497, 497, 493, 493, 493, 496, 495, 493, 496, 493, 494, 496, 494, 497, 494, 494, 494, 494, 494, 493, 493, 495, 494, 494, 493, 496, 494, 494, 494, 495, 494, 494, 499, 492, 493, 494, 495, 494, 494, 496, 494, 495, 492, 495, 496, 493, 493, 497, 494, 488, 497, 493, 495, 497, 495, 493, 493, 495, 495, 494, 496, 492, 494, 494, 495, 493, 494, 500, 491, 497, 495, 492, 493, 493, 494, 494, 497, 494, 494, 500, 496, 491, 492, 494, 494, 498, 495, 493, 499, 495, 492, 497, 494, 492, 494, 495, 494, 494, 495, 496, 495, 494, 498, 494, 494, 495, 492, 496, 492, 494, 494, 495, 495, 493, 494, 495, 494, 492, 494, 496, 494, 494, 494, 494, 494, 493, 494, 495, 494, 495, 495, 497, 496, 491, 488, 496, 494, 493, 494, 494, 498, 490, 492, 494, 499, 494, 494, 494, 496, 494, 494, 493, 494, 498, 493, 494, 493, 493, 493, 497, 496, 493, 497, 498, 496, 492, 496, 494, 492, 493, 495, 496, 495, 493, 494, 496, 491, 494, 494, 493, 494, 494, 491, 497, 493, 493, 493, 499, 491, 498, 493, 499, 494, 495, 492, 494, 493, 494, 493, 494, 495, 494, 495, 496, 494, 497, 492, 493, 497, 494, 500, 494, 493, 495, 501, 487, 495, 493, 495, 494, 493, 494, 493, 495, 491, 495, 498, 494, 494, 494, 493, 496, 494, 492, 491, 496, 495, 493, 499, 494, 493, 498, 494, 495, 494, 494, 492, 494, 494, 493, 494, 494, 492, 494, 493, 491, 494, 492, 496, 497, 497, 492, 494, 495, 494, 491, 496, 493, 493, 493, 495, 498, 494, 497, 497, 493, 495, 494, 495, 495, 492, 493, 494, 496, 492, 493, 494, 494, 494, 494, 495, 496, 494, 494, 494, 493, 494, 493, 495, 494, 493, 494, 494, 494, 496, 495, 492, 494, 494, 493, 495, 494, 494, 493, 493, 495, 495, 493, 494, 494, 494, 494, 496, 495, 492, 493, 493, 493, 495, 494, 494, 494, 494, 495, 494, 494, 493, 493, 495, 494, 494, 495, 494, 493, 494, 494, 493, 493, 495, 495, 494, 494, 494, 496, 494, 495, 493, 494, 494, 494, 494, 495, 494, 495, 494, 494, 494, 494, 493, 494, 495, 494, 493, 495, 495, 494, 495, 495, 494, 495, 495, 494, 494, 494, 493, 493, 495]"
28,rest,"[494, 494, 495, 496, 494, 495, 494, 494, 494, 494, 493, 494, 497, 494, 494, 494, 494, 494, 494, 495, 494, 495, 494, 494, 495, 495, 494, 494, 494, 494, 494, 494, 495, 494, 495, 494, 494, 495, 495, 495, 495, 494, 494, 495, 496, 494, 494, 493, 495, 494, 494, 494, 494, 495, 495, 494, 494, 494, 494, 494, 495, 494, 494, 495, 493, 494, 494, 494, 495, 495, 495, 494, 495, 494, 494, 494, 494, 493, 495, 494, 495, 494, 495, 494, 494, 494, 494, 494, 494, 494, 494, 494, 494, 493, 494, 495, 495, 494, 495, 494, 494, 495, 494, 494, 495, 494, 494, 494, 494, 494, 495, 494, 494, 494, 494, 494, 495, 495, 494, 494, 494, 494, 494, 494, 494, 495, 495, 494, 493, 493, 494, 494, 495, 494, 494, 494, 494, 494, 494, 494, 494, 494, 494, 494, 493, 494, 494, 494, 494, 494, 494, 493, 494, 494, 494, 493, 494, 494, 494, 495, 494, 494, 494, 494, 494, 494, 494, 494, 494, 494, 494, 495, 495, 493, 495, 494, 494, 493, 494, 494, 494, 494, 493, 494, 494, 493, 494, 494, 495, 493, 493, 495, 494, 493, 494, 494, 493, 494, 494, 494, 494, 494, 494, 494, 495, 494, 493, 494, 494, 494, 494, 493, 494, 494, 494, 494, 494, 494, 490, 493, 495, 494, 495, 494, 494, 494, 494, 494, 493, 494, 493, 494, 494, 495, 493, 494, 495, 492, 492, 496, 495, 494, 494, 494, 494, 494, 494, 492, 494, 494, 493, 494, 494, 493, 493, 494, 494, 494, 494, 493, 493, 494, 495, 493, 493, 494, 494, 494, 494, 494, 493, 494, 493, 494, 493, 493, 494, 494, 494, 493, 494, 493, 494, 494, 494, 493, 494, 494, 494, 495, 494, 494, 494, 493, 494, 494, 494, 493, 494, 494, 494, 493, 493, 495, 494, 494, 494, 494, 494, 495, 494, 494, 494, 494, 493, 494, 494, 494, 494, 495, 494, 494, 494, 494, 495, 494, 494, 494, 494, 494, 493, 496, 494, 493, 494, 495, 494, 494, 494, 492, 494, 495, 495, 494, 494, 494, 493, 495, 494, 493, 494, 494, 495, 495, 494, 493, 492, 493, 494, 494, 495, 494, 494, 494, 494, 494, 493, 494, 494, 494, 494, 495, 494, 494, 494, 494, 494, 493, 494, 494, 494, 494, 494, 494, 494, 494, 494, 494, 493, 493, 494, 494, 493, 494, 493, 494, 496, 495, 493, 494, 495, 494, 494, 493, 495, 495, 494, 492, 493, 494, 494, 496, 495, 494, 492, 494, 493, 494, 494, 494, 494, 494, 493, 491, 494, 496, 494, 494, 494, 494, 494, 494, 493, 494, 494, 494, 493, 494, 494, 493, 493, 494, 494, 494, 495, 494, 494, 494, 494, 494, 494, 494, 494, 494, 494, 494, 493, 494, 493, 494, 494, 493, 494, 494, 492, 493, 495, 494, 494, 493, 493, 493, 494, 494, 494, 495, 494, 493, 494, 494, 494, 494, 495, 492, 493, 494, 494, 494, 494, 493, 493, 494, 494, 493, 493, 494, 494, 493, 494, 494, 494, 494, 494, 494, 494, 494, 493, 494, 494, 493, 493, 495, 494, 494, 492, 492, 494, 495, 494, 494, 494, 494, 494, 494, 494, 493, 493, 494, 494, 493, 492, 494, 493, 494, 494, 493, 494, 494, 493, 493, 494, 494, 494, 494, 493, 494, 494, 494, 494, 494, 494, 494, 492, 493, 494, 495, 494, 494, 493, 493, 493, 494, 494, 494, 495, 494, 494, 493, 494, 494, 492, 494, 494, 494, 494, 494, 493]"
29,right,"[493, 495, 495, 494, 494, 494, 493, 494, 493, 493, 494, 494, 494, 494, 494, 493, 493, 494, 494, 494, 494, 494, 494, 494, 494, 494, 494, 495, 492, 493, 495, 493, 493, 494, 494, 493, 493, 494, 494, 494, 494, 494, 494, 494, 493, 494, 494, 494, 494, 494, 493, 493, 494, 494, 494, 494, 494, 493, 493, 495, 494, 494, 494, 493, 493, 494, 494, 494, 494, 494, 493, 494, 494, 493, 494, 494, 493, 494, 494, 494, 494, 494, 493, 494, 494, 494, 493, 494, 494, 494, 494, 494, 494, 494, 494, 494, 494, 494, 494, 494, 494, 494, 494, 494, 494, 493, 494, 495, 494, 493, 493, 494, 493, 494, 494, 494, 494, 494, 494, 494, 494, 493, 494, 494, 494, 493, 494, 493, 494, 494, 493, 494, 494, 494, 493, 494, 494, 494, 494, 494, 492, 493, 494, 494, 493, 494, 494, 493, 494, 493, 494, 494, 494, 493, 493, 494, 494, 494, 493, 493, 494, 494, 494, 494, 493, 493, 494, 494, 494, 493, 493, 494, 493, 493, 493, 494, 494, 493, 494, 494, 495, 494, 494, 493, 494, 494, 494, 494, 494, 494, 494, 494, 493, 493, 494, 494, 494, 493, 494, 494, 494, 493, 494, 494, 494, 494, 494, 494, 493, 495, 494, 494, 494, 494, 495, 495, 493, 493, 494, 494, 493, 492, 495, 494, 494, 494, 495, 494, 495, 494, 494, 494, 493, 494, 495, 495, 494, 494, 494, 494, 494, 493, 495, 493, 494, 494, 494, 495, 494, 492, 493, 496, 493, 494, 496, 493, 493, 495, 494, 494, 495, 494, 492, 494, 494, 494, 494, 497, 494, 495, 497, 495, 496, 494, 496, 497, 493, 494, 494, 495, 494, 494, 494, 496, 498, 493, 494, 497, 498, 492, 492, 494, 495, 496, 493, 493, 495, 493, 494, 494, 494, 493, 494, 496, 492, 492, 491, 492, 495, 500, 498, 492, 495, 492, 492, 494, 492, 493, 495, 495, 495, 490, 491, 491, 498, 495, 494, 495, 500, 491, 491, 500, 487, 494, 494, 493, 497, 494, 494, 493, 492, 494, 492, 494, 496, 491, 494, 496, 496, 492, 491, 497, 497, 497, 494, 497, 493, 493, 494, 495, 495, 497, 494, 493, 494, 495, 498, 493, 494, 496, 494, 498, 490, 494, 494, 492, 498, 494, 493, 497, 495, 493, 498, 494, 490, 497, 495, 494, 494, 492, 494, 496, 490, 494, 494, 497, 494, 497, 494, 496, 494, 496, 495, 493, 495, 496, 493, 497, 494, 494, 490, 507, 493, 498, 495, 494, 496, 495, 494, 494, 495, 496, 499, 492, 494, 499, 498, 499, 491, 491, 496, 496, 493, 494, 496, 494, 498, 490, 491, 498, 496, 498, 500, 495, 496, 496, 496, 497, 496, 494, 494, 494, 493, 494, 491, 500, 495, 497, 494, 493, 496, 492, 494, 496, 493, 494, 494, 496, 492, 499, 503, 494, 494, 497, 496, 501, 492, 492, 495, 493, 494, 494, 494, 494, 497, 497, 493, 506, 486, 495, 490, 498, 492, 497, 494, 501, 500, 495, 498, 491, 491, 494, 495, 497, 494, 497, 495, 494, 494, 492, 497, 496, 494, 492, 495, 494, 492, 500, 497, 492, 493, 494, 495, 496, 496, 494, 497, 493, 490, 496, 494, 494, 498, 495, 493, 495, 497, 496, 498, 494, 494, 492, 495, 495, 495, 497, 494, 493, 494, 495, 496, 497, 493, 492, 496, 495, 490, 496, 496, 494, 494, 495, 495, 495, 491, 496, 495, 493, 495, 494, 496, 496, 497, 498, 493, 493, 495]"
30,rest,"[495, 495, 493, 495, 497, 498, 493, 494, 496, 495, 492, 494, 494, 497, 495, 494, 496, 495, 494, 495, 494, 496, 494, 493, 494, 499, 496, 494, 494, 494, 494, 494, 494, 497, 494, 494, 494, 494, 496, 496, 496, 493, 495, 494, 493, 494, 496, 495, 496, 494, 494, 494, 496, 494, 494, 493, 495, 496, 494, 495, 494, 494, 495, 495, 495, 494, 493, 496, 495, 494, 493, 496, 493, 494, 494, 493, 495, 495, 495, 493, 493, 497, 495, 494, 495, 494, 495, 494, 494, 494, 495, 494, 494, 494, 495, 494, 494, 494, 494, 495, 494, 494, 495, 494, 493, 495, 495, 494, 494, 495, 493, 494, 495, 494, 494, 494, 493, 494, 493, 495, 494, 493, 494, 493, 494, 494, 493, 494, 495, 495, 494, 494, 493, 494, 494, 494, 494, 494, 494, 493, 494, 495, 493, 493, 495, 495, 493, 494, 494, 494, 494, 493, 494, 494, 494, 494, 493, 494, 494, 493, 494, 494, 493, 494, 494, 494, 494, 494, 494, 494, 494, 493, 493, 494, 494, 492, 496, 494, 494, 494, 494, 494, 494, 495, 494, 494, 494, 494, 494, 494, 494, 494, 494, 494, 493, 494, 494, 495, 494, 493, 494, 494, 494, 494, 494, 494, 493, 494, 494, 494, 493, 494, 494, 493, 494, 494, 494, 494, 494, 494, 494, 494, 494, 494, 494, 493, 494, 494, 494, 494, 494, 494, 493, 494, 494, 494, 493, 494, 493, 493, 494, 494, 493, 493, 494, 494, 495, 494, 494, 494, 494, 494, 494, 494, 493, 494, 494, 494, 493, 494, 494, 493, 493, 494, 494, 494, 494, 494, 493, 494, 494, 494, 494, 494, 493, 494, 494, 493, 494, 494, 494, 494, 494, 493, 494, 494, 492, 494, 493, 494, 494, 494, 494, 494, 494, 494, 494, 493, 494, 494, 494, 493, 493, 495, 494, 495, 493, 493, 494, 493, 493, 493, 494, 494, 494, 492, 492, 493, 494, 494, 494, 495, 494, 494, 495, 493, 494, 495, 494, 494, 494, 494, 494, 494, 494, 494, 494, 494, 494, 494, 494, 493, 494, 494, 494, 493, 495, 494, 494, 494, 495, 494, 494, 494, 493, 494, 494, 494, 494, 494, 493, 494, 494, 494, 493, 494, 494, 493, 495, 494, 494, 493, 494, 493, 494, 495, 494, 494, 494, 494, 495, 496, 492, 494, 495, 494, 494, 494, 494, 494, 494, 495, 493, 494, 494, 496, 493, 496, 494, 494, 494, 494, 493, 494, 495, 494, 494, 494, 494, 495, 493, 494, 494, 494, 494, 494, 494, 494, 493, 494, 494, 494, 494, 494, 494, 496, 494, 492, 494, 495, 494, 494, 494, 495, 493, 494, 493, 493, 494, 494, 494, 493, 493, 493, 495, 496, 494, 494, 494, 495, 493, 493, 492, 494, 494, 496, 495, 494, 493, 494, 494, 493, 491, 494, 497, 494, 494, 494, 494, 494, 493, 493, 493, 495, 494, 494, 494, 494, 494, 493, 493, 493, 494, 494, 494, 493, 494, 494, 493, 494, 493, 493, 492, 494, 496, 495, 495, 494, 494, 494, 494, 494, 494, 494, 493, 493, 495, 494, 494, 494, 494, 493, 494, 494, 493, 495, 494, 494, 494, 494, 494, 494, 494, 494, 493, 494, 493, 495, 494, 494, 494, 494, 494, 494, 493, 495, 494, 494, 494, 494, 494, 494, 494, 493, 495, 494, 493, 492, 494, 495, 495, 495, 494, 493, 494, 494, 493, 494, 494, 495, 494, 494, 493, 493, 494, 494, 495, 494, 493, 494, 495, 494, 494, 495, 494, 493]"
31,right,"[494, 494, 494, 494, 494, 493, 495, 495, 494, 494, 494, 494, 493, 494, 494, 495, 494, 494, 493, 494, 494, 494, 494, 495, 494, 494, 494, 493, 494, 494, 495, 494, 494, 494, 493, 495, 495, 494, 494, 493, 493, 494, 495, 495, 495, 495, 492, 492, 494, 495, 495, 495, 494, 494, 493, 494, 494, 494, 495, 494, 494, 493, 493, 493, 494, 495, 495, 493, 494, 493, 494, 495, 494, 494, 495, 494, 494, 494, 494, 494, 494, 494, 493, 493, 494, 494, 494, 495, 492, 493, 495, 494, 494, 494, 494, 494, 493, 494, 494, 494, 494, 494, 494, 494, 494, 494, 494, 494, 494, 493, 494, 494, 494, 495, 494, 494, 493, 494, 494, 494, 493, 492, 494, 495, 494, 494, 494, 494, 494, 494, 493, 493, 495, 494, 494, 494, 494, 495, 494, 494, 494, 494, 494, 494, 494, 494, 494, 494, 494, 494, 494, 494, 494, 494, 494, 494, 493, 494, 494, 494, 494, 495, 494, 494, 494, 493, 493, 494, 494, 494, 494, 494, 494, 494, 494, 493, 494, 493, 494, 494, 495, 493, 493, 494, 494, 494, 495, 494, 494, 493, 495, 494, 495, 495, 494, 494, 494, 494, 494, 494, 493, 493, 493, 495, 493, 494, 495, 494, 494, 495, 492, 494, 494, 495, 492, 494, 494, 494, 495, 495, 492, 495, 493, 494, 494, 494, 493, 496, 494, 494, 491, 494, 496, 492, 494, 496, 493, 491, 496, 494, 494, 494, 494, 495, 494, 494, 492, 494, 493, 495, 494, 495, 494, 494, 494, 495, 495, 494, 491, 494, 493, 492, 496, 494, 494, 494, 498, 498, 492, 494, 493, 494, 495, 493, 493, 494, 494, 493, 490, 494, 494, 493, 493, 495, 494, 494, 492, 494, 496, 493, 492, 495, 492, 497, 491, 494, 494, 492, 494, 494, 494, 493, 495, 494, 494, 493, 494, 495, 494, 494, 492, 496, 494, 494, 494, 494, 493, 494, 494, 493, 493, 494, 494, 492, 495, 494, 491, 493, 493, 494, 495, 494, 494, 498, 491, 494, 493, 494, 495, 497, 496, 494, 493, 494, 493, 494, 494, 493, 494, 495, 497, 493, 493, 495, 496, 492, 489, 495, 495, 496, 495, 494, 493, 492, 496, 495, 492, 494, 496, 496, 495, 494, 495, 493, 492, 493, 493, 495, 495, 494, 492, 493, 498, 496, 496, 497, 493, 493, 499, 495, 499, 491, 490, 495, 494, 494, 492, 495, 494, 495, 494, 494, 496, 499, 498, 494, 494, 497, 494, 497, 493, 494, 494, 495, 495, 494, 496, 495, 496, 497, 493, 493, 492, 492, 494, 498, 495, 496, 495, 494, 495, 495, 495, 493, 495, 494, 494, 495, 496, 494, 495, 495, 495, 495, 493, 495, 495, 494, 496, 494, 493, 501, 492, 493, 495, 493, 494, 493, 497, 494, 495, 497, 493, 495, 494, 495, 495, 495, 494, 494, 494, 495, 494, 494, 495, 494, 494, 492, 494, 494, 495, 496, 493, 494, 497, 493, 494, 495, 493, 495, 492, 493, 495, 498, 498, 492, 494, 494, 492, 495, 496, 494, 494, 497, 496, 494, 494, 494, 495, 494, 494, 494, 495, 496, 494, 494, 494, 494, 495, 495, 495, 495, 494, 494, 493, 496, 494, 494, 497, 495, 493, 496, 495, 493, 494, 495, 494, 491, 495, 495, 493, 494, 498, 494, 493, 493, 495, 495, 494, 497, 492, 494, 496, 493, 494, 494, 494, 494, 494, 494, 494, 494, 494, 494, 494, 494, 495, 494, 494, 498, 495, 495, 493, 494, 494, 494, 494]"
32,rest,"[495, 495, 494, 494, 495, 494, 495, 495, 494, 495, 494, 494, 494, 494, 494, 494, 494, 495, 496, 495, 494, 495, 495, 494, 494, 494, 494, 494, 494, 495, 494, 494, 494, 494, 494, 495, 494, 494, 494, 494, 494, 494, 494, 494, 494, 494, 494, 495, 494, 493, 495, 494, 494, 495, 494, 494, 494, 495, 494, 494, 494, 494, 494, 494, 495, 494, 494, 494, 494, 494, 494, 495, 495, 495, 494, 495, 495, 495, 494, 494, 495, 494, 494, 495, 494, 494, 495, 494, 495, 493, 495, 494, 494, 495, 494, 494, 495, 494, 494, 494, 494, 494, 494, 494, 494, 495, 494, 494, 494, 494, 494, 495, 495, 494, 494, 495, 494, 494, 494, 494, 495, 494, 495, 494, 494, 494, 494, 494, 494, 495, 494, 494, 496, 495, 495, 495, 495, 494, 494, 495, 495, 494, 494, 495, 494, 494, 494, 494, 494, 495, 494, 494, 494, 494, 494, 494, 494, 494, 495, 494, 494, 493, 493, 495, 494, 494, 494, 493, 494, 494, 495, 494, 495, 494, 494, 493, 493, 494, 494, 494, 494, 493, 494, 494, 493, 494, 494, 493, 493, 495, 494, 493, 495, 494, 495, 494, 494, 494, 494, 494, 494, 494, 493, 493, 493, 494, 493, 494, 494, 493, 494, 496, 494, 494, 494, 494, 494, 493, 494, 494, 494, 495, 493, 494, 494, 493, 495, 494, 494, 494, 494, 494, 494, 494, 493, 494, 494, 494, 493, 494, 495, 493, 494, 495, 494, 494, 496, 494, 494, 493, 494, 493, 494, 494, 494, 495, 494, 492, 494, 495, 494, 494, 494, 494, 493, 495, 494, 494, 494, 495, 494, 494, 494, 494, 494, 495, 494, 494, 493, 494, 494, 494, 494, 493, 494, 494, 493, 494, 494, 495, 493, 494, 494, 494, 494, 494, 494, 494, 494, 494, 494, 494, 494, 494, 495, 494, 494, 494, 494, 494, 494, 493, 494, 494, 494, 494, 494, 494, 493, 494, 495, 494, 495, 495, 494, 493, 494, 495, 494, 494, 492, 492, 495, 496, 494, 494, 493, 494, 495, 494, 494, 494, 494, 494, 494, 494, 493, 494, 496, 494, 494, 495, 493, 494, 494, 494, 494, 494, 494, 493, 493, 494, 494, 493, 494, 494, 494, 494, 494, 494, 493, 494, 494, 495, 494, 493, 494, 494, 494, 494, 494, 494, 494, 494, 494, 493, 494, 495, 493, 494, 494, 494, 494, 494, 493, 493, 494, 494, 494, 494, 494, 494, 494, 494, 495, 494, 494, 494, 493, 494, 493, 494, 493, 494, 494, 494, 494, 493, 494, 495, 492, 494, 494, 493, 494, 494, 494, 494, 494, 494, 493, 493, 494, 494, 494, 495, 494, 492, 494, 494, 494, 494, 494, 493, 495, 494, 494, 494, 494, 493, 491, 494, 494, 494, 494, 494, 494, 494, 492, 493, 494, 494, 494, 494, 494, 493, 492, 494, 494, 494, 494, 494, 494, 494, 494, 493, 494, 494, 494, 494, 494, 493, 494, 493, 491, 493, 495, 495, 494, 494, 493, 494, 494, 494, 494, 494, 494, 493, 493, 494, 494, 494, 494, 493, 493, 493, 494, 494, 494, 494, 493, 494, 494, 494, 494, 495, 494, 493, 494, 494, 494, 494, 494, 493, 494, 494, 494, 494, 494, 493, 494, 494, 494, 493, 494, 494, 494, 494, 494, 494, 494, 494, 494, 494, 494, 494, 494, 494, 494, 494, 494, 493, 494, 494, 494, 494, 493, 494, 493, 494, 493, 494, 493, 494, 494, 493, 494, 494, 493, 494, 494, 493, 494, 494, 493, 494, 493]"
33,right,"[493, 494, 494, 494, 493, 494, 494, 494, 494, 494, 493, 494, 494, 493, 493, 494, 494, 493, 494, 493, 495, 494, 494, 494, 494, 494, 493, 494, 494, 494, 494, 494, 494, 494, 494, 494, 494, 494, 494, 493, 494, 494, 494, 494, 494, 494, 494, 494, 493, 494, 494, 494, 494, 494, 494, 494, 494, 494, 494, 494, 494, 494, 494, 494, 493, 493, 494, 494, 494, 495, 494, 494, 494, 494, 495, 494, 494, 494, 494, 494, 493, 494, 494, 494, 494, 495, 494, 493, 493, 494, 495, 494, 494, 494, 495, 495, 494, 494, 494, 494, 494, 494, 495, 494, 494, 494, 494, 494, 494, 494, 495, 495, 494, 494, 494, 494, 494, 494, 494, 494, 494, 493, 494, 495, 494, 494, 495, 494, 494, 494, 494, 495, 495, 494, 494, 495, 494, 494, 494, 494, 494, 494, 494, 494, 494, 493, 494, 494, 494, 494, 494, 493, 494, 494, 494, 494, 494, 494, 494, 494, 495, 494, 494, 494, 494, 494, 494, 494, 494, 494, 494, 494, 494, 494, 494, 494, 494, 494, 494, 494, 494, 495, 495, 494, 494, 494, 494, 494, 494, 494, 494, 494, 494, 494, 495, 494, 493, 494, 494, 494, 494, 494, 494, 494, 494, 494, 494, 494, 494, 494, 495, 494, 494, 495, 494, 495, 495, 494, 494, 494, 496, 494, 498, 492, 493, 494, 494, 495, 494, 495, 495, 494, 494, 496, 496, 494, 497, 495, 494, 494, 494, 495, 495, 493, 493, 495, 494, 494, 495, 494, 493, 491, 496, 493, 495, 496, 492, 494, 494, 495, 496, 494, 495, 494, 494, 494, 493, 493, 494, 494, 495, 496, 494, 494, 494, 494, 497, 495, 496, 492, 496, 493, 494, 491, 500, 494, 495, 493, 494, 494, 493, 495, 493, 494, 494, 497, 494, 497, 489, 494, 500, 497, 493, 494, 493, 494, 494, 496, 501, 494, 493, 498, 495, 495, 494, 495, 492, 494, 502, 496, 495, 493, 498, 494, 494, 496, 499, 491, 497, 499, 492, 491, 493, 501, 491, 490, 494, 491, 494, 496, 500, 497, 495, 490, 500, 494, 503, 492, 495, 493, 493, 497, 489, 493, 502, 493, 500, 494, 489, 499, 501, 497, 494, 501, 494, 494, 495, 497, 494, 497, 501, 496, 494, 498, 495, 494, 494, 494, 494, 496, 497, 496, 491, 488, 499, 498, 493, 498, 493, 495, 497, 496, 499, 497, 495, 497, 497, 495, 492, 496, 498, 495, 495, 493, 497, 497, 497, 496, 499, 493, 493, 493, 494, 491, 496, 494, 498, 498, 492, 494, 496, 499, 496, 497, 495, 496, 496, 494, 492, 495, 494, 493, 500, 495, 495, 493, 498, 497, 496, 496, 496, 495, 495, 496, 495, 495, 495, 496, 496, 494, 497, 495, 494, 496, 500, 496, 496, 494, 495, 496, 497, 495, 497, 497, 496, 494, 494, 497, 496, 496, 494, 496, 494, 496, 498, 494, 497, 494, 494, 496, 497, 496, 495, 494, 494, 495, 498, 494, 496, 496, 495, 493, 496, 495, 495, 494, 494, 496, 495, 494, 495, 496, 496, 494, 493, 494, 494, 495, 495, 495, 494, 494, 495, 495, 495, 494, 494, 495, 493, 493, 496, 494, 495, 494, 495, 494, 494, 494, 494, 494, 495, 494, 493, 494, 496, 494, 495, 495, 494, 493, 494, 494, 494, 494, 494, 494, 494, 494, 493, 494, 494, 494, 494, 494, 493, 494, 495, 494, 493, 494, 494, 493, 494, 493, 493, 494, 494, 493, 494, 494, 494, 494, 494, 493, 494, 494, 494]"
34,rest,"[493, 494, 493, 494, 494, 493, 493, 494, 494, 492, 494, 494, 494, 494, 493, 493, 494, 494, 494, 493, 494, 494, 493, 494, 494, 492, 493, 494, 492, 493, 493, 494, 493, 494, 494, 493, 494, 494, 494, 493, 493, 493, 494, 494, 493, 492, 493, 493, 493, 494, 494, 493, 494, 493, 493, 494, 494, 493, 494, 494, 493, 493, 494, 494, 493, 494, 494, 493, 494, 494, 493, 493, 493, 494, 493, 494, 494, 493, 493, 493, 494, 494, 494, 493, 494, 494, 493, 494, 494, 493, 494, 493, 493, 493, 494, 494, 494, 493, 494, 492, 494, 494, 493, 494, 494, 494, 493, 494, 493, 493, 494, 494, 493, 494, 494, 494, 493, 494, 494, 494, 494, 493, 493, 494, 493, 493, 493, 493, 493, 495, 494, 493, 493, 494, 494, 493, 494, 494, 494, 494, 493, 494, 494, 494, 494, 494, 494, 493, 494, 493, 492, 494, 494, 494, 493, 494, 494, 494, 494, 494, 493, 493, 493, 494, 494, 494, 493, 494, 494, 494, 494, 494, 494, 494, 494, 493, 493, 494, 494, 493, 494, 494, 494, 494, 494, 494, 495, 494, 494, 492, 494, 494, 493, 493, 493, 492, 494, 494, 494, 494, 494, 494, 493, 494, 494, 493, 494, 492, 493, 495, 494, 493, 494, 493, 493, 495, 494, 493, 494, 494, 494, 493, 494, 494, 494, 494, 493, 493, 494, 494, 494, 493, 493, 494, 494, 494, 493, 493, 495, 495, 494, 494, 494, 493, 494, 494, 493, 494, 494, 494, 493, 494, 493, 494, 494, 494, 493, 493, 494, 493, 494, 494, 493, 494, 494, 494, 494, 494, 494, 494, 494, 494, 494, 494, 493, 494, 494, 494, 494, 494, 494, 494, 494, 494, 494, 494, 494, 494, 494, 494, 494, 493, 494, 494, 494, 494, 494, 494, 494, 494, 494, 494, 494, 494, 494, 494, 493, 494, 495, 494, 494, 493, 494, 494, 494, 494, 494, 493, 493, 494, 493, 494, 495, 494, 493, 494, 495, 493, 494, 494, 494, 494, 494, 494, 494, 494, 494, 494, 494, 493, 494, 495, 494, 493, 494, 494, 494, 494, 494, 494, 494, 494, 494, 494, 493, 494, 495, 494, 494, 494, 494, 494, 494, 494, 494, 494, 494, 494, 494, 494, 494, 494, 495, 494, 493, 494, 496, 495, 494, 494, 494, 494, 494, 494, 495, 495, 494, 493, 493, 494, 494, 495, 494, 493, 494, 494, 494, 494, 494, 494, 494, 494, 495, 494, 494, 494, 494, 494, 495, 495, 494, 493, 494, 494, 494, 494, 494, 494, 495, 494, 494, 494, 494, 494, 494, 493, 493, 495, 494, 494, 494, 494, 494, 494, 494, 494, 494, 495, 494, 493, 494, 494, 494, 494, 494, 494, 494, 494, 494, 494, 494, 494, 495, 494, 494, 493, 493, 494, 494, 495, 494, 495, 494, 494, 493, 494, 495, 494, 494, 494, 493, 495, 495, 494, 494, 494, 494, 494, 494, 493, 493, 495, 494, 494, 494, 494, 494, 494, 494, 494, 495, 494, 494, 494, 494, 494, 493, 494, 495, 494, 494, 494, 494, 494, 494, 494, 494, 494, 494, 493, 494, 494, 494, 494, 494, 493, 494, 494, 494, 495, 494, 494, 494, 494, 495, 494, 494, 494, 494, 494, 494, 494, 493, 494, 494, 494, 494, 493, 494, 494, 494, 494, 494, 495, 495, 494, 494, 493, 495, 494, 493, 494, 494, 494, 494, 494, 493, 494, 495, 494, 494, 493, 493, 494, 494, 494, 494, 494, 494, 494, 494, 494, 494, 495, 494, 493]"
35,right,"[494, 494, 494, 494, 494, 494, 494, 495, 494, 493, 494, 494, 495, 494, 494, 494, 494, 494, 494, 494, 494, 494, 494, 494, 495, 494, 494, 494, 494, 494, 495, 495, 494, 494, 494, 494, 494, 494, 494, 494, 495, 494, 494, 495, 494, 495, 494, 494, 494, 496, 494, 494, 494, 494, 496, 496, 494, 495, 493, 495, 494, 493, 495, 494, 494, 493, 495, 495, 494, 495, 494, 495, 494, 494, 493, 494, 494, 493, 495, 493, 494, 494, 494, 494, 493, 494, 494, 494, 494, 494, 494, 495, 494, 495, 493, 495, 495, 492, 494, 496, 495, 494, 493, 495, 495, 495, 493, 495, 494, 494, 494, 495, 495, 494, 496, 494, 494, 493, 491, 495, 494, 494, 494, 494, 495, 494, 495, 495, 495, 494, 494, 494, 495, 498, 494, 495, 494, 494, 493, 494, 494, 495, 496, 493, 494, 496, 493, 496, 496, 494, 495, 494, 492, 493, 495, 494, 493, 495, 493, 496, 498, 495, 497, 494, 497, 494, 494, 495, 494, 497, 495, 494, 494, 498, 492, 494, 497, 494, 494, 494, 495, 498, 493, 495, 496, 494, 495, 495, 494, 498, 493, 494, 495, 495, 498, 497, 494, 496, 494, 494, 496, 494, 494, 493, 494, 493, 495, 495, 494, 494, 495, 495, 496, 497, 494, 495, 497, 496, 495, 496, 495, 496, 495, 495, 497, 494, 496, 496, 497, 495, 494, 497, 496, 496, 494, 496, 494, 494, 498, 494, 496, 494, 494, 497, 496, 496, 495, 497, 497, 497, 497, 493, 497, 497, 497, 496, 495, 496, 496, 495, 497, 496, 497, 495, 496, 496, 495, 496, 496, 498, 495, 494, 499, 495, 499, 496, 498, 495, 497, 494, 495, 498, 495, 497, 497, 497, 494, 496, 494, 496, 496, 498, 494, 496, 497, 495, 494, 496, 494, 497, 497, 495, 494, 497, 496, 495, 494, 492, 494, 499, 494, 495, 497, 499, 494, 494, 499, 493, 495, 495, 495, 494, 497, 498, 494, 495, 498, 494, 495, 496, 493, 496, 497, 492, 499, 495, 495, 496, 494, 497, 494, 496, 494, 496, 494, 497, 495, 496, 498, 491, 498, 494, 495, 495, 497, 495, 494, 496, 497, 491, 495, 496, 493, 498, 497, 496, 495, 496, 496, 494, 496, 495, 494, 496, 494, 497, 498, 495, 495, 500, 494, 494, 494, 495, 493, 494, 495, 496, 497, 496, 498, 494, 494, 495, 496, 496, 497, 497, 496, 494, 495, 497, 498, 495, 494, 497, 494, 496, 496, 495, 495, 497, 493, 495, 497, 495, 494, 494, 498, 495, 494, 497, 495, 496, 495, 495, 495, 497, 497, 495, 495, 497, 497, 496, 495, 496, 495, 495, 496, 496, 496, 493, 495, 495, 495, 496, 495, 495, 494, 494, 495, 495, 496, 497, 494, 495, 495, 494, 495, 496, 496, 494, 496, 495, 495, 495, 495, 495, 495, 496, 496, 494, 495, 494, 496, 495, 497, 495, 496, 495, 494, 495, 496, 495, 494, 496, 494, 495, 496, 498, 499, 495, 493, 495, 496, 495, 495, 495, 497, 496, 495, 495, 496, 496, 496, 494, 495, 494, 495, 494, 495, 495, 495, 497, 495, 495, 495, 495, 495, 495, 494, 494, 494, 495, 495, 494, 495, 495, 494, 495, 494, 494, 494, 495, 495, 494, 493, 495, 494, 495, 495, 494, 495, 494, 494, 494, 495, 494, 494, 494, 494, 495, 493, 495, 493, 493, 496, 494, 493, 493, 494, 494, 494, 494, 494, 494, 495, 494, 493, 493, 494, 494, 494, 494, 494, 494, 494]"
36,rest,"[494, 494, 491, 494, 494, 494, 494, 493, 494, 494, 494, 494, 493, 493, 494, 493, 493, 494, 493, 492, 494, 494, 493, 494, 493, 491, 493, 494, 494, 493, 494, 492, 494, 493, 492, 492, 492, 492, 492, 492, 493, 492, 492, 494, 493, 493, 493, 493, 493, 492, 493, 494, 492, 493, 492, 493, 493, 491, 492, 492, 493, 493, 493, 492, 493, 491, 492, 493, 494, 491, 491, 493, 492, 492, 492, 492, 493, 493, 492, 493, 494, 492, 492, 492, 493, 493, 492, 493, 494, 492, 492, 493, 492, 493, 493, 492, 492, 492, 492, 492, 493, 492, 492, 492, 493, 493, 492, 492, 491, 493, 495, 492, 492, 493, 494, 491, 491, 491, 494, 493, 493, 493, 493, 493, 493, 493, 494, 493, 493, 493, 492, 492, 493, 493, 493, 492, 492, 491, 494, 494, 493, 493, 492, 493, 492, 492, 493, 493, 494, 493, 493, 494, 492, 491, 493, 494, 493, 493, 493, 493, 493, 493, 494, 494, 492, 493, 492, 493, 493, 492, 494, 494, 493, 493, 491, 493, 494, 495, 493, 493, 493, 492, 493, 494, 493, 493, 493, 493, 493, 493, 494, 493, 494, 494, 493, 493, 494, 493, 493, 494, 493, 493, 494, 494, 494, 494, 494, 493, 493, 494, 494, 494, 494, 493, 494, 494, 494, 494, 493, 493, 494, 494, 494, 493, 494, 494, 494, 494, 494, 493, 493, 494, 494, 493, 493, 494, 493, 494, 494, 494, 494, 494, 493, 493, 494, 493, 494, 495, 493, 494, 494, 494, 493, 494, 493, 492, 494, 494, 494, 494, 494, 494, 492, 494, 494, 494, 494, 494, 493, 494, 494, 493, 494, 494, 493, 494, 494, 492, 494, 494, 494, 493, 494, 494, 493, 494, 494, 493, 494, 494, 494, 493, 494, 493, 493, 495, 493, 493, 494, 494, 494, 493, 494, 493, 494, 494, 494, 494, 494, 495, 493, 493, 494, 493, 494, 494, 494, 494, 494, 494, 493, 494, 492, 493, 494, 494, 495, 494, 494, 493, 494, 495, 492, 494, 494, 493, 494, 494, 493, 493, 493, 494, 494, 494, 494, 493, 494, 493, 492, 494, 495, 494, 494, 494, 493, 495, 494, 493, 493, 494, 494, 494, 494, 493, 493, 494, 494, 493, 493, 494, 494, 494, 494, 494, 493, 494, 493, 493, 494, 494, 494, 494, 494, 494, 493, 493, 493, 494, 494, 494, 493, 494, 494, 494, 494, 494, 494, 494, 494, 495, 495, 493, 494, 494, 495, 494, 494, 494, 494, 493, 493, 494, 494, 495, 494, 494, 494, 494, 494, 494, 493, 493, 493, 494, 494, 494, 494, 494, 493, 493, 494, 493, 494, 494, 494, 494, 494, 494, 494, 494, 493, 492, 494, 495, 494, 495, 494, 493, 494, 494, 494, 494, 494, 494, 494, 493, 494, 494, 494, 495, 494, 494, 495, 494, 494, 493, 494, 494, 494, 493, 493, 494, 494, 494, 494, 494, 494, 494, 494, 494, 493, 494, 493, 494, 494, 493, 493, 493, 494, 493, 494, 494, 493, 494, 494, 494, 494, 494, 494, 493, 494, 494, 494, 494, 494, 494, 494, 494, 493, 495, 494, 492, 494, 494, 494, 493, 494, 494, 494, 495, 494, 493, 494, 494, 494, 494, 494, 494, 494, 494, 494, 494, 495, 494, 494, 494, 493, 493, 493, 494, 494, 494, 493, 494, 495, 494, 494, 494, 495, 494, 494, 494, 494, 494, 494, 494, 493, 495, 494, 494, 494, 494, 494, 494, 494, 494, 494, 494, 494, 494, 494, 494, 494, 494, 494, 494, 494]"
37,right,"[495, 493, 494, 494, 493, 495, 494, 493, 493, 494, 494, 494, 494, 494, 493, 494, 494, 494, 494, 494, 495, 494, 493, 494, 495, 494, 493, 493, 494, 494, 493, 494, 494, 493, 494, 494, 494, 493, 494, 495, 494, 494, 493, 493, 494, 494, 494, 494, 494, 494, 494, 494, 493, 494, 494, 494, 494, 494, 494, 494, 493, 494, 494, 494, 494, 494, 494, 494, 494, 492, 494, 495, 494, 494, 494, 494, 494, 494, 494, 494, 494, 494, 494, 494, 494, 493, 494, 494, 493, 494, 494, 494, 495, 494, 494, 494, 494, 494, 493, 494, 495, 494, 494, 494, 494, 494, 494, 494, 494, 494, 494, 494, 494, 494, 493, 494, 495, 494, 495, 494, 494, 494, 495, 494, 494, 495, 494, 494, 494, 494, 494, 495, 494, 494, 494, 495, 494, 494, 494, 494, 494, 494, 495, 494, 493, 495, 495, 494, 494, 494, 495, 496, 494, 495, 495, 494, 493, 495, 493, 494, 496, 494, 494, 496, 494, 496, 494, 494, 494, 496, 495, 495, 495, 494, 496, 492, 494, 494, 494, 495, 492, 494, 494, 494, 493, 494, 495, 493, 493, 493, 492, 494, 494, 493, 494, 495, 494, 493, 495, 494, 493, 494, 495, 494, 494, 494, 493, 493, 496, 494, 495, 496, 493, 494, 496, 495, 495, 494, 494, 495, 494, 494, 492, 494, 497, 492, 494, 494, 494, 494, 495, 494, 494, 495, 494, 496, 493, 494, 497, 494, 498, 490, 493, 493, 496, 496, 496, 494, 492, 492, 494, 495, 493, 494, 493, 497, 492, 494, 491, 493, 492, 501, 496, 495, 494, 493, 495, 499, 494, 495, 494, 495, 491, 497, 496, 501, 494, 491, 495, 495, 499, 494, 494, 496, 495, 496, 494, 497, 494, 496, 494, 491, 494, 496, 495, 497, 498, 495, 494, 494, 496, 497, 494, 496, 488, 494, 495, 497, 495, 496, 494, 502, 496, 492, 495, 493, 494, 495, 496, 496, 493, 492, 494, 494, 496, 493, 492, 496, 495, 494, 495, 496, 493, 497, 495, 494, 494, 490, 493, 494, 495, 494, 494, 497, 498, 495, 494, 492, 495, 498, 494, 494, 498, 498, 494, 494, 492, 497, 495, 496, 493, 492, 497, 494, 494, 498, 495, 497, 496, 494, 495, 497, 497, 494, 492, 495, 494, 493, 497, 494, 496, 499, 494, 494, 497, 494, 497, 494, 496, 490, 492, 496, 492, 494, 493, 493, 497, 493, 496, 495, 497, 495, 496, 493, 494, 494, 493, 495, 496, 491, 495, 496, 494, 496, 492, 494, 497, 495, 494, 494, 494, 496, 496, 493, 494, 494, 494, 494, 493, 494, 496, 494, 495, 494, 496, 494, 494, 494, 494, 494, 494, 494, 494, 494, 495, 495, 494, 496, 495, 494, 494, 495, 492, 494, 495, 495, 494, 494, 494, 494, 494, 494, 494, 495, 495, 494, 494, 494, 495, 494, 494, 494, 494, 495, 494, 495, 494, 494, 495, 495, 494, 494, 494, 495, 494, 494, 494, 495, 494, 495, 494, 494, 495, 495, 494, 494, 495, 494, 494, 494, 494, 493, 495, 495, 494, 495, 494, 494, 494, 495, 494, 494, 495, 494, 493, 494, 495, 494, 494, 494, 494, 494, 494, 494, 494, 494, 494, 494, 494, 494, 495, 495, 495, 493, 494, 495, 495, 494, 494, 494, 494, 494, 494, 495, 494, 494, 494, 495, 495, 494, 495, 494, 494, 494, 494, 494, 494, 494, 493, 495, 495, 494, 494, 494, 494, 494, 495, 494, 494, 494, 495, 494, 494, 495, 495, 494, 494]"
38,rest,"[495, 495, 495, 494, 494, 494, 494, 495, 494, 494, 494, 494, 494, 494, 494, 494, 494, 494, 494, 494, 494, 494, 495, 494, 494, 495, 494, 494, 494, 495, 494, 495, 495, 494, 494, 494, 495, 494, 494, 493, 494, 495, 494, 495, 494, 494, 495, 495, 494, 494, 494, 494, 493, 494, 495, 494, 495, 494, 494, 494, 494, 494, 494, 494, 493, 494, 494, 494, 494, 494, 494, 494, 494, 494, 494, 494, 495, 494, 494, 494, 494, 494, 494, 494, 494, 495, 494, 494, 494, 495, 494, 494, 494, 494, 494, 494, 494, 494, 494, 494, 494, 494, 494, 494, 494, 494, 494, 494, 495, 494, 494, 494, 494, 494, 494, 494, 494, 494, 494, 494, 494, 494, 494, 494, 495, 493, 494, 494, 494, 494, 494, 494, 494, 494, 494, 495, 493, 495, 494, 495, 495, 493, 496, 493, 494, 494, 495, 494, 494, 494, 494, 494, 494, 494, 493, 493, 494, 495, 494, 494, 493, 494, 495, 494, 494, 494, 494, 493, 494, 494, 493, 495, 495, 495, 494, 494, 494, 494, 495, 494, 494, 494, 494, 494, 495, 494, 494, 494, 494, 494, 494, 494, 494, 494, 494, 495, 494, 494, 495, 492, 495, 495, 494, 493, 494, 495, 494, 494, 494, 494, 494, 494, 494, 494, 494, 494, 494, 494, 494, 494, 494, 494, 494, 494, 494, 494, 493, 493, 493, 495, 494, 494, 494, 493, 493, 493, 494, 494, 494, 494, 494, 494, 494, 493, 494, 494, 493, 494, 495, 492, 494, 494, 494, 494, 494, 494, 494, 493, 495, 494, 494, 493, 494, 494, 494, 494, 494, 494, 494, 494, 493, 494, 494, 493, 494, 494, 494, 494, 494, 494, 494, 494, 494, 494, 494, 493, 492, 494, 494, 494, 494, 494, 493, 494, 494, 495, 494, 495, 493, 494, 493, 495, 494, 494, 494, 493, 495, 494, 493, 494, 494, 494, 494, 494, 494, 494, 494, 493, 493, 495, 494, 494, 494, 493, 493, 494, 495, 494, 494, 494, 493, 494, 494, 494, 495, 494, 493, 494, 494, 494, 494, 494, 495, 494, 494, 494, 494, 494, 494, 494, 493, 495, 494, 494, 494, 494, 494, 494, 494, 494, 494, 494, 494, 494, 495, 494, 493, 494, 494, 494, 494, 494, 494, 494, 494, 494, 493, 494, 494, 494, 494, 494, 494, 495, 494, 494, 494, 494, 494, 494, 494, 493, 494, 494, 494, 494, 494, 493, 495, 495, 493, 493, 494, 494, 494, 494, 494, 494, 494, 494, 494, 493, 495, 494, 494, 494, 494, 494, 494, 494, 493, 494, 494, 494, 494, 495, 493, 494, 494, 494, 493, 493, 495, 494, 494, 494, 494, 494, 494, 494, 494, 495, 494, 494, 494, 494, 494, 494, 494, 493, 493, 494, 495, 495, 494, 494, 494, 494, 494, 495, 494, 494, 494, 494, 494, 494, 495, 494, 492, 493, 495, 494, 495, 494, 494, 494, 494, 494, 493, 494, 494, 494, 495, 494, 494, 494, 494, 493, 494, 494, 494, 494, 494, 494, 494, 495, 494, 494, 494, 494, 493, 494, 494, 493, 495, 494, 493, 494, 494, 494, 494, 494, 494, 493, 493, 494, 494, 494, 495, 494, 494, 493, 494, 495, 495, 494, 494, 495, 494, 494, 494, 495, 493, 494, 494, 494, 493, 494, 494, 494, 494, 493, 494, 494, 494, 494, 494, 493, 494, 494, 494, 493, 495, 494, 493, 494, 495, 494, 493, 494, 494, 494, 494, 495, 493, 494, 494, 494, 494, 494, 494, 494, 494, 493, 494, 494]"
39,right,"[495, 493, 494, 494, 493, 495, 494, 494, 494, 493, 494, 493, 494, 494, 494, 494, 494, 494, 494, 494, 494, 494, 494, 494, 494, 495, 494, 494, 494, 494, 494, 494, 494, 493, 495, 494, 494, 494, 494, 495, 494, 494, 495, 493, 494, 494, 494, 494, 494, 494, 494, 494, 494, 494, 494, 494, 494, 493, 494, 494, 495, 494, 493, 495, 495, 494, 494, 494, 494, 494, 494, 494, 494, 494, 494, 494, 494, 493, 494, 494, 494, 495, 495, 494, 494, 493, 494, 494, 494, 494, 494, 493, 494, 494, 494, 494, 494, 494, 494, 494, 493, 493, 495, 494, 494, 494, 494, 494, 494, 493, 494, 495, 494, 494, 494, 494, 495, 495, 494, 493, 494, 494, 494, 493, 494, 494, 494, 494, 494, 493, 494, 494, 494, 494, 494, 494, 494, 495, 494, 494, 494, 495, 495, 494, 494, 494, 494, 494, 494, 494, 495, 494, 495, 495, 494, 494, 494, 494, 494, 494, 494, 494, 495, 494, 494, 494, 496, 494, 494, 495, 495, 494, 494, 494, 495, 495, 494, 494, 495, 495, 494, 494, 494, 494, 494, 495, 494, 494, 495, 496, 494, 495, 495, 494, 494, 495, 494, 494, 494, 494, 495, 494, 494, 497, 492, 493, 494, 494, 494, 494, 494, 494, 494, 495, 494, 494, 493, 494, 494, 494, 494, 494, 495, 495, 494, 494, 493, 494, 494, 494, 494, 493, 494, 495, 496, 496, 493, 494, 496, 493, 494, 494, 494, 494, 495, 494, 494, 494, 495, 494, 493, 495, 495, 494, 494, 495, 494, 493, 494, 495, 494, 494, 495, 495, 493, 495, 495, 494, 494, 494, 494, 494, 494, 494, 495, 495, 496, 494, 494, 496, 494, 494, 494, 494, 495, 494, 494, 494, 495, 494, 497, 495, 493, 494, 493, 494, 494, 494, 495, 496, 495, 494, 494, 496, 496, 494, 494, 494, 494, 496, 494, 493, 494, 496, 496, 494, 495, 494, 493, 495, 494, 494, 494, 494, 494, 494, 494, 495, 494, 495, 495, 494, 494, 496, 493, 494, 496, 494, 494, 495, 493, 496, 494, 496, 497, 498, 493, 493, 494, 495, 494, 494, 494, 494, 495, 495, 496, 495, 494, 494, 495, 491, 495, 494, 494, 494, 494, 495, 494, 494, 495, 494, 496, 494, 495, 494, 496, 497, 494, 492, 494, 494, 495, 496, 498, 493, 496, 495, 495, 494, 495, 495, 496, 496, 496, 495, 494, 495, 495, 495, 496, 495, 496, 500, 494, 494, 494, 491, 495, 494, 494, 497, 494, 498, 492, 495, 496, 492, 495, 492, 496, 497, 494, 493, 498, 493, 498, 493, 496, 494, 495, 494, 495, 500, 493, 493, 494, 496, 491, 500, 494, 493, 491, 495, 498, 492, 492, 496, 497, 494, 499, 493, 498, 493, 492, 495, 494, 496, 495, 495, 492, 494, 500, 490, 498, 494, 490, 498, 494, 496, 494, 497, 495, 496, 491, 497, 491, 500, 495, 492, 494, 500, 497, 494, 495, 495, 494, 495, 500, 494, 491, 495, 491, 495, 495, 494, 495, 493, 493, 495, 496, 493, 494, 493, 496, 492, 496, 494, 501, 499, 494, 498, 493, 499, 495, 493, 493, 497, 495, 495, 499, 493, 493, 493, 500, 493, 494, 496, 494, 492, 492, 497, 499, 496, 490, 494, 493, 495, 495, 496, 494, 495, 497, 494, 495, 492, 491, 492, 494, 496, 498, 493, 490, 494, 493, 494, 494, 494, 495, 494, 496, 490, 496, 498, 493, 496, 492, 494, 494, 496, 494, 498, 494, 496, 494, 496, 494]"
40,rest,"[497, 493, 499, 496, 494, 495, 494, 494, 494, 494, 492, 497, 503, 494, 494, 492, 494, 495, 495, 495, 496, 497, 493, 496, 494, 491, 494, 495, 492, 493, 494, 498, 496, 495, 494, 492, 494, 495, 497, 493, 494, 496, 492, 494, 496, 492, 495, 494, 493, 494, 497, 496, 497, 493, 495, 495, 499, 494, 493, 493, 494, 492, 494, 496, 494, 494, 494, 494, 495, 496, 494, 495, 497, 492, 493, 492, 494, 496, 493, 495, 495, 495, 495, 494, 494, 495, 494, 495, 497, 497, 493, 496, 493, 494, 494, 494, 494, 494, 494, 494, 494, 495, 494, 494, 495, 495, 495, 494, 494, 494, 495, 495, 494, 495, 495, 494, 494, 495, 494, 494, 495, 495, 494, 496, 494, 494, 495, 494, 495, 495, 495, 494, 494, 495, 495, 495, 495, 494, 494, 495, 494, 495, 496, 494, 495, 495, 495, 495, 494, 495, 495, 494, 494, 496, 494, 494, 494, 494, 496, 495, 494, 495, 495, 493, 494, 495, 495, 494, 495, 493, 494, 496, 495, 493, 494, 495, 495, 495, 494, 494, 494, 495, 494, 494, 496, 494, 494, 495, 494, 494, 494, 494, 493, 494, 494, 495, 496, 494, 495, 494, 495, 494, 494, 494, 495, 495, 494, 494, 494, 494, 494, 494, 495, 495, 494, 493, 494, 494, 495, 495, 495, 493, 494, 494, 494, 494, 494, 493, 494, 496, 494, 494, 494, 494, 494, 494, 494, 494, 494, 494, 494, 494, 493, 493, 494, 495, 494, 492, 495, 495, 494, 495, 494, 494, 495, 494, 494, 494, 494, 493, 494, 494, 494, 495, 494, 493, 493, 494, 494, 493, 493, 494, 495, 495, 496, 493, 493, 495, 494, 494, 494, 492, 493, 497, 494, 494, 494, 494, 495, 494, 494, 493, 494, 494, 493, 494, 494, 494, 494, 494, 494, 493, 494, 494, 494, 493, 495, 494, 494, 493, 493, 494, 495, 494, 494, 494, 494, 494, 494, 494, 493, 495, 495, 494, 494, 494, 494, 493, 494, 494, 495, 495, 494, 494, 494, 495, 494, 495, 494, 493, 494, 494, 494, 494, 495, 494, 494, 494, 493, 494, 496, 495, 494, 494, 494, 493, 494, 494, 495, 494, 494, 493, 494, 495, 494, 495, 494, 493, 493, 495, 494, 493, 493, 494, 494, 493, 495, 494, 493, 494, 493, 494, 496, 494, 494, 495, 494, 494, 494, 493, 494, 495, 494, 495, 495, 494, 494, 493, 493, 493, 494, 495, 494, 494, 494, 494, 491, 493, 495, 494, 494, 494, 494, 494, 494, 494, 494, 494, 494, 494, 493, 494, 494, 495, 494, 493, 493, 494, 495, 495, 494, 494, 494, 494, 494, 494, 494, 492, 494, 494, 494, 495, 493, 494, 494, 493, 495, 494, 494, 494, 494, 494, 494, 493, 493, 494, 494, 495, 494, 494, 494, 494, 494, 494, 493, 493, 493, 493, 494, 494, 494, 495, 494, 494, 494, 495, 494, 493, 493, 494, 495, 494, 494, 493, 494, 495, 494, 494, 493, 494, 494, 494, 494, 494, 494, 494, 493, 494, 493, 494, 494, 495, 494, 494, 494, 494, 494, 493, 494, 494, 494, 494, 493, 495, 494, 493, 493, 495, 494, 494, 494, 494, 493, 493, 494, 494, 494, 494, 494, 493, 493, 494, 494, 495, 494, 494, 494, 492, 493, 495, 494, 494, 494, 494, 493, 493, 493, 491, 494, 495, 494, 494, 495, 493, 492, 494, 495, 494, 495, 494, 494, 494, 494, 494, 494, 495, 494, 493, 493, 494, 494, 494, 494, 493, 494, 494]"
41,right,"[494, 494, 494, 493, 494, 494, 494, 494, 494, 494, 493, 494, 494, 493, 494, 494, 494, 493, 493, 494, 494, 494, 494, 493, 494, 494, 493, 494, 494, 494, 493, 494, 494, 494, 495, 494, 494, 494, 493, 494, 495, 494, 494, 494, 494, 494, 494, 494, 493, 494, 494, 494, 494, 494, 494, 493, 494, 493, 494, 494, 494, 494, 494, 495, 494, 494, 494, 493, 495, 494, 493, 493, 494, 494, 494, 494, 494, 494, 494, 495, 493, 494, 494, 493, 494, 494, 494, 494, 495, 494, 493, 494, 494, 494, 494, 494, 494, 495, 494, 493, 493, 494, 494, 494, 495, 493, 494, 494, 494, 493, 494, 494, 494, 494, 494, 493, 494, 495, 494, 494, 494, 494, 494, 494, 494, 494, 494, 494, 494, 494, 494, 494, 494, 494, 494, 494, 495, 494, 493, 494, 495, 493, 493, 494, 494, 494, 494, 493, 494, 494, 494, 494, 494, 494, 493, 494, 494, 494, 494, 492, 493, 494, 494, 494, 494, 494, 492, 494, 494, 495, 494, 494, 494, 494, 494, 494, 493, 494, 493, 494, 494, 494, 494, 494, 494, 494, 493, 494, 493, 494, 494, 494, 493, 494, 494, 494, 494, 494, 494, 494, 494, 494, 494, 494, 494, 494, 493, 493, 494, 494, 495, 494, 494, 494, 494, 494, 494, 494, 494, 495, 495, 494, 495, 495, 494, 493, 495, 494, 495, 494, 496, 494, 496, 493, 494, 494, 493, 494, 494, 494, 495, 493, 493, 495, 494, 494, 495, 492, 496, 494, 495, 494, 497, 493, 493, 493, 494, 496, 496, 495, 494, 492, 496, 495, 494, 495, 497, 494, 493, 490, 496, 494, 494, 494, 498, 492, 492, 498, 493, 492, 494, 496, 496, 492, 499, 494, 494, 495, 496, 496, 497, 491, 493, 496, 493, 491, 499, 493, 494, 498, 494, 496, 494, 493, 494, 496, 500, 494, 493, 493, 497, 493, 490, 499, 494, 498, 499, 491, 492, 496, 497, 497, 493, 495, 493, 495, 492, 492, 492, 495, 503, 492, 504, 491, 488, 492, 493, 494, 494, 496, 502, 491, 493, 496, 490, 496, 492, 493, 495, 499, 494, 497, 487, 492, 497, 493, 486, 495, 493, 495, 494, 493, 500, 500, 496, 495, 494, 494, 497, 492, 492, 492, 496, 493, 497, 496, 491, 501, 494, 496, 494, 496, 500, 494, 494, 496, 504, 493, 494, 493, 495, 495, 490, 494, 500, 495, 496, 499, 494, 498, 494, 495, 495, 496, 497, 498, 495, 491, 493, 495, 495, 504, 496, 495, 498, 498, 495, 493, 494, 494, 495, 493, 495, 496, 494, 494, 494, 500, 494, 497, 499, 496, 495, 496, 496, 496, 494, 491, 496, 500, 497, 494, 494, 496, 498, 495, 494, 494, 495, 498, 497, 496, 495, 494, 493, 494, 491, 496, 493, 494, 496, 497, 497, 495, 495, 495, 496, 494, 495, 494, 493, 495, 495, 496, 494, 494, 496, 494, 495, 496, 495, 495, 492, 497, 495, 495, 495, 494, 495, 496, 494, 495, 494, 496, 496, 495, 495, 495, 496, 493, 495, 495, 496, 496, 495, 495, 494, 495, 494, 494, 494, 495, 494, 495, 494, 494, 495, 496, 494, 494, 496, 494, 494, 496, 495, 494, 495, 494, 494, 494, 494, 495, 495, 495, 494, 494, 495, 494, 494, 494, 494, 494, 494, 494, 495, 494, 494, 494, 494, 495, 494, 495, 495, 494, 495, 495, 494, 494, 493, 495, 495, 495, 494, 494, 494, 496, 494, 494, 494, 494, 494, 494, 494, 494, 493, 494, 492]"
