,label,input
1,right,"[494, 494, 495, 493, 493, 494, 493, 493, 494, 495, 494, 494, 494, 494, 494, 494, 494, 494, 494, 494, 494, 494, 494, 494, 494, 494, 494, 494, 494, 494, 495, 493, 493, 495, 494, 494, 494, 494, 493, 494, 494, 494, 494, 494, 495, 493, 493, 494, 494, 494, 494, 494, 494, 494, 494, 494, 494, 494, 494, 494, 494, 494, 494, 495, 493, 494, 494, 493, 494, 494, 494, 494, 495, 494, 494, 494, 494, 494, 494, 494, 494, 494, 494, 494, 494, 494, 494, 494, 494, 494, 494, 494, 494, 494, 494, 494, 494, 494, 494, 494, 495, 494, 494, 494, 494, 494, 494, 494, 494, 493, 494, 494, 494, 494, 494, 493, 494, 496, 494, 495, 494, 494, 494, 492, 495, 493, 494, 493, 495, 495, 494, 494, 494, 496, 494, 496, 494, 494, 493, 496, 493, 495, 497, 497, 493, 496, 497, 500, 490, 496, 505, 498, 495, 502, 493, 491, 498, 494, 508, 484, 489, 495, 498, 494, 489, 506, 497, 482, 493, 486, 514, 490, 499, 502, 486, 489, 500, 497, 491, 497, 497, 491, 496, 492, 493, 495, 489, 492, 506, 497, 505, 496, 499, 492, 502, 498, 491, 496, 499, 496, 492, 503, 496, 497, 503, 494, 494, 493, 492, 500, 493, 501, 482, 489, 494, 499, 497, 495, 492, 500, 483, 495, 494, 482, 494, 499, 495, 496, 495, 504, 491, 490, 488, 498, 498, 500, 491, 498, 499, 496, 499, 491, 496, 495, 499, 500, 487, 497, 490, 498, 495, 497, 494, 490, 496, 472, 493, 492, 498, 507, 493, 503, 498, 500, 493, 494, 494, 494, 492, 497, 499, 489, 495, 501, 500, 500, 496, 493, 492, 493, 493, 497, 491, 495, 495, 496, 482, 494, 497, 491, 491, 494, 493, 490, 493, 496, 487, 490, 493, 478, 492, 494, 491, 492, 503, 496, 497, 495, 497, 494, 492, 492, 497, 494, 493, 491, 494, 494, 490, 498, 495, 494, 494, 493, 490, 495, 494, 494, 496, 493, 493, 497, 494, 503, 499, 497, 494, 495, 494, 497, 493, 494, 494, 496, 497, 493, 495, 480, 494, 491, 496, 497, 494, 491, 491, 490, 494, 497, 494, 493, 494, 495, 498, 484, 493, 491, 495, 491, 493, 488, 493, 493, 491, 494, 490, 500, 494, 495, 493, 495, 497, 493, 493, 491, 495, 490, 494, 494, 495, 494, 497, 490, 495, 496, 498, 494, 489, 498, 497, 493, 493, 496, 493, 491, 493, 491, 494, 496, 496, 494, 496, 492, 493, 496, 494, 486, 496, 496, 495, 492, 499, 497, 489, 490, 495, 496, 494, 494, 494, 482, 494, 495, 491, 486, 494, 494, 495, 494, 493, 488, 495, 488, 494, 495, 494, 491, 495, 493, 491, 494, 487, 495, 494, 490, 491, 488, 492, 493, 495, 493, 494, 497, 499, 491, 495, 495, 499, 488, 496, 494, 492, 496, 494, 493, 494, 498, 492, 492, 487, 492, 495, 501, 490, 494, 490, 495, 497, 495, 494, 487, 494, 500, 494, 496, 495, 494, 490, 493, 488, 494, 492, 496, 495, 493, 494, 493, 496, 492, 502, 498, 494, 496, 494, 494, 493, 501, 496, 493, 496, 493, 497, 493, 492, 495, 499, 502, 493, 494, 495, 494, 494, 495, 493, 492, 496, 487, 491, 494, 495, 497, 498, 494, 494, 494, 492, 494, 493, 492, 494, 488, 495, 493, 495, 495, 492, 496, 491, 497, 492, 493, 493, 494, 492, 495, 491, 493, 493, 490, 495, 492, 494, 493, 494, 496, 494, 493, 492]"
2,rest,"[493, 496, 491, 494, 492, 496, 494, 494, 495, 495, 495, 494, 495, 493, 482, 498, 497, 496, 494, 494, 494, 494, 493, 493, 495, 494, 492, 494, 494, 489, 492, 495, 496, 494, 494, 494, 494, 495, 495, 498, 503, 494, 494, 495, 497, 491, 494, 497, 498, 496, 492, 491, 494, 501, 496, 496, 494, 494, 500, 494, 495, 494, 493, 492, 494, 492, 495, 490, 497, 488, 494, 493, 492, 491, 492, 495, 498, 492, 494, 495, 493, 494, 494, 492, 497, 492, 493, 497, 496, 494, 499, 492, 496, 491, 499, 494, 494, 493, 493, 493, 493, 494, 495, 502, 493, 494, 495, 494, 493, 495, 497, 490, 497, 499, 491, 493, 495, 493, 494, 494, 493, 493, 492, 495, 500, 494, 494, 494, 494, 494, 494, 494, 493, 494, 494, 494, 494, 495, 493, 494, 493, 494, 494, 494, 495, 494, 494, 494, 495, 494, 494, 495, 494, 494, 494, 494, 494, 494, 495, 494, 494, 494, 493, 494, 494, 494, 494, 494, 494, 492, 494, 494, 494, 494, 494, 494, 494, 494, 493, 494, 493, 494, 494, 494, 493, 493, 494, 494, 494, 494, 494, 494, 494, 495, 493, 494, 494, 494, 494, 493, 493, 495, 494, 495, 494, 494, 494, 494, 494, 494, 494, 494, 494, 494, 494, 494, 494, 495, 494, 495, 494, 495, 494, 494, 495, 494, 494, 494, 494, 495, 493, 496, 494, 494, 495, 494, 494, 494, 494, 494, 494, 494, 495, 494, 494, 495, 494, 495, 494, 494, 495, 494, 494, 494, 494, 494, 495, 494, 494, 495, 494, 494, 494, 495, 495, 494, 496, 494, 494, 494, 495, 494, 494, 495, 490, 497, 495, 495, 495, 494, 495, 494, 495, 495, 495, 494, 494, 495, 495, 495, 494, 495, 495, 495, 495, 495, 494, 496, 495, 495, 496, 495, 494, 495, 495, 495, 494, 495, 496, 495, 494, 496, 495, 495, 495, 495, 495, 495, 495, 495, 495, 495, 495, 494, 496, 495, 495, 495, 495, 495, 495, 495, 495, 495, 495, 495, 495, 496, 495, 495, 495, 495, 495, 495, 495, 495, 495, 495, 493, 495, 496, 495, 496, 495, 495, 495, 495, 495, 495, 496, 495, 494, 495, 495, 495, 495, 495, 495, 496, 495, 495, 495, 495, 495, 496, 495, 494, 495, 495, 495, 495, 495, 496, 495, 495, 496, 495, 494, 496, 495, 495, 495, 495, 495, 495, 495, 495, 495, 495, 495, 496, 495, 495, 495, 495, 496, 496, 495, 495, 496, 495, 495, 495, 495, 495, 495, 496, 496, 496, 495, 495, 495, 495, 495, 494, 496, 495, 495, 495, 496, 496, 495, 495, 495, 495, 495, 495, 494, 495, 496, 496, 495, 495, 495, 496, 495, 495, 495, 495, 495, 495, 495, 496, 495, 494, 495, 495, 495, 496, 495, 495, 495, 495, 495, 495, 496, 495, 495, 495, 495, 495, 495, 495, 496, 496, 495, 495, 496, 495, 496, 495, 496, 495, 495, 495, 495, 496, 495, 496, 495, 495, 495, 494, 496, 495, 495, 496, 495, 495, 495, 496, 495, 495, 495, 495, 495, 495, 496, 495, 495, 496, 495, 495, 495, 495, 495, 495, 495, 495, 495, 495, 495, 495, 495, 495, 496, 495, 495, 495, 495, 494, 495, 496, 495, 495, 496, 495, 495, 495, 495, 495, 495, 495, 495, 495, 495, 495, 495, 495, 496, 495, 496, 495, 495, 495, 494, 496, 495, 495, 496, 495, 495, 495, 495, 495, 494, 495, 495, 495, 496, 495, 496, 495, 496, 495, 495, 495]"
3,right,"[496, 495, 495, 495, 495, 495, 495, 495, 495, 495, 495, 495, 495, 495, 495, 495, 495, 496, 495, 495, 495, 495, 495, 495, 495, 495, 495, 494, 495, 496, 495, 496, 495, 495, 495, 495, 495, 495, 496, 495, 496, 495, 495, 495, 495, 496, 495, 495, 495, 496, 495, 496, 496, 495, 495, 495, 495, 496, 495, 496, 495, 495, 495, 495, 495, 495, 495, 495, 495, 495, 495, 495, 495, 495, 495, 494, 495, 495, 495, 495, 495, 495, 494, 495, 496, 495, 495, 496, 495, 495, 495, 495, 496, 495, 495, 495, 494, 495, 494, 495, 495, 495, 496, 495, 495, 495, 495, 495, 495, 495, 495, 495, 494, 494, 495, 495, 495, 494, 495, 495, 495, 495, 495, 495, 495, 495, 495, 495, 495, 495, 495, 495, 495, 496, 496, 495, 495, 495, 494, 495, 495, 496, 494, 497, 495, 494, 495, 496, 495, 495, 495, 496, 494, 495, 498, 494, 495, 495, 496, 493, 496, 494, 496, 495, 497, 494, 494, 496, 502, 491, 496, 495, 496, 495, 496, 498, 494, 498, 501, 492, 500, 493, 495, 497, 497, 495, 496, 508, 483, 495, 496, 501, 493, 494, 498, 496, 495, 497, 490, 499, 487, 499, 492, 499, 498, 494, 493, 500, 491, 491, 493, 495, 501, 502, 491, 501, 479, 500, 510, 483, 499, 498, 495, 503, 483, 495, 495, 487, 495, 495, 493, 497, 487, 502, 498, 501, 492, 481, 490, 494, 487, 486, 496, 491, 497, 497, 497, 508, 481, 499, 481, 496, 495, 500, 495, 500, 494, 496, 485, 493, 501, 486, 489, 494, 492, 504, 496, 492, 493, 495, 493, 499, 490, 500, 495, 495, 494, 485, 496, 495, 499, 487, 498, 496, 496, 490, 499, 500, 490, 494, 491, 496, 496, 498, 494, 503, 498, 494, 496, 493, 493, 494, 496, 497, 496, 492, 475, 497, 494, 496, 494, 493, 494, 500, 499, 495, 494, 496, 496, 495, 494, 498, 495, 497, 497, 494, 496, 493, 491, 494, 494, 494, 498, 495, 494, 495, 496, 493, 494, 494, 489, 493, 498, 490, 494, 495, 495, 495, 495, 485, 494, 494, 497, 491, 496, 492, 496, 493, 495, 493, 494, 497, 486, 496, 494, 493, 489, 496, 494, 495, 492, 487, 495, 499, 496, 494, 490, 494, 494, 494, 495, 489, 502, 494, 494, 500, 494, 494, 497, 482, 494, 495, 494, 493, 494, 493, 494, 490, 497, 493, 491, 500, 495, 492, 495, 492, 494, 495, 490, 494, 498, 494, 493, 495, 494, 491, 494, 495, 502, 495, 495, 494, 494, 495, 495, 494, 494, 497, 496, 493, 496, 489, 494, 491, 495, 493, 494, 494, 494, 496, 494, 486, 493, 494, 494, 491, 497, 494, 493, 493, 494, 500, 491, 494, 494, 490, 496, 486, 493, 493, 498, 494, 494, 494, 494, 490, 495, 491, 492, 494, 493, 492, 493, 491, 494, 496, 486, 493, 493, 493, 497, 491, 493, 494, 491, 495, 495, 496, 494, 491, 494, 493, 495, 494, 500, 497, 492, 495, 494, 496, 494, 496, 495, 497, 494, 496, 488, 494, 494, 494, 494, 494, 493, 494, 494, 491, 491, 496, 496, 495, 493, 493, 494, 500, 493, 491, 496, 495, 494, 494, 494, 490, 490, 495, 494, 493, 494, 491, 492, 494, 493, 489, 497, 493, 497, 493, 494, 494, 494, 491, 493, 496, 496, 498, 494, 496, 493, 493, 497, 495, 493, 494, 499, 490, 494, 494, 494, 491, 493, 492, 497, 479, 495, 494, 496, 497]"
4,rest,"[497, 493, 494, 491, 494, 493, 496, 495, 493, 493, 494, 496, 498, 494, 494, 490, 498, 493, 495, 487, 494, 494, 491, 495, 494, 494, 494, 495, 494, 495, 497, 494, 496, 492, 494, 495, 491, 490, 496, 494, 494, 487, 495, 495, 494, 494, 495, 491, 494, 496, 497, 494, 491, 495, 492, 493, 494, 494, 494, 494, 494, 494, 495, 494, 495, 494, 495, 494, 491, 496, 493, 494, 494, 494, 492, 494, 494, 494, 493, 502, 496, 495, 489, 496, 493, 494, 494, 496, 496, 497, 495, 494, 497, 494, 494, 495, 496, 495, 494, 495, 495, 495, 489, 492, 495, 492, 493, 494, 495, 494, 494, 495, 494, 494, 494, 494, 495, 492, 493, 494, 495, 493, 494, 494, 494, 495, 494, 494, 494, 494, 494, 494, 495, 494, 494, 494, 494, 494, 494, 495, 493, 493, 494, 495, 492, 494, 494, 494, 494, 494, 494, 494, 494, 494, 494, 493, 494, 494, 494, 494, 494, 494, 494, 494, 494, 494, 494, 494, 494, 493, 495, 494, 496, 494, 495, 494, 494, 494, 494, 495, 494, 494, 493, 495, 494, 490, 497, 495, 494, 495, 495, 495, 494, 494, 495, 494, 494, 494, 495, 494, 494, 495, 494, 495, 495, 495, 494, 494, 494, 494, 495, 494, 495, 494, 494, 494, 495, 494, 494, 494, 495, 495, 494, 495, 494, 494, 495, 495, 495, 494, 495, 494, 494, 495, 495, 495, 495, 494, 495, 494, 496, 494, 495, 495, 494, 495, 495, 495, 494, 495, 495, 495, 495, 494, 495, 495, 495, 495, 494, 493, 496, 495, 495, 494, 496, 495, 495, 494, 496, 495, 495, 495, 495, 495, 495, 496, 494, 494, 495, 496, 494, 495, 495, 495, 495, 495, 495, 495, 494, 496, 496, 495, 495, 495, 495, 495, 494, 496, 495, 495, 495, 495, 495, 494, 495, 495, 495, 495, 495, 495, 495, 494, 495, 495, 495, 494, 495, 496, 495, 496, 495, 495, 495, 495, 495, 495, 495, 495, 494, 495, 495, 495, 495, 495, 495, 495, 495, 494, 496, 495, 494, 496, 495, 495, 495, 495, 495, 495, 495, 495, 495, 495, 495, 495, 495, 495, 495, 495, 495, 495, 496, 495, 495, 495, 495, 494, 495, 496, 495, 495, 494, 496, 495, 495, 495, 496, 496, 495, 495, 495, 495, 494, 495, 496, 495, 496, 495, 495, 495, 496, 495, 495, 495, 495, 495, 494, 495, 496, 495, 494, 495, 495, 495, 495, 495, 494, 495, 495, 495, 494, 495, 496, 495, 494, 495, 495, 495, 495, 496, 494, 496, 495, 495, 495, 495, 495, 495, 494, 495, 495, 495, 495, 496, 495, 495, 495, 495, 496, 494, 496, 495, 495, 494, 495, 495, 495, 496, 495, 496, 495, 494, 495, 495, 496, 495, 495, 495, 495, 495, 496, 495, 495, 495, 495, 495, 495, 495, 495, 495, 495, 495, 495, 495, 494, 495, 495, 494, 495, 495, 495, 495, 495, 495, 494, 495, 495, 495, 494, 495, 495, 495, 495, 495, 495, 494, 495, 495, 495, 495, 495, 495, 495, 495, 495, 495, 495, 495, 495, 495, 495, 495, 495, 495, 495, 495, 495, 495, 494, 496, 495, 494, 495, 495, 495, 495, 495, 495, 494, 495, 495, 495, 495, 495, 495, 494, 495, 495, 495, 494, 495, 495, 494, 495, 494, 496, 495, 494, 495, 495, 495, 495, 495, 494, 495, 495, 495, 495, 494, 494, 497, 495, 496, 495, 495, 495, 495, 495, 495, 495, 494, 495, 495, 495, 494, 495, 495, 495]"
5,right,"[495, 495, 495, 495, 495, 495, 495, 495, 495, 495, 495, 495, 496, 495, 495, 495, 495, 495, 495, 496, 494, 495, 494, 496, 495, 495, 496, 495, 495, 495, 495, 495, 495, 495, 494, 495, 496, 495, 495, 494, 495, 494, 496, 495, 495, 495, 495, 495, 495, 495, 495, 495, 495, 495, 495, 496, 494, 495, 495, 494, 496, 495, 495, 495, 495, 495, 495, 494, 495, 495, 495, 494, 497, 495, 495, 495, 494, 495, 495, 494, 495, 495, 495, 495, 495, 495, 494, 495, 495, 495, 497, 494, 495, 495, 495, 494, 495, 495, 495, 495, 495, 495, 494, 495, 495, 494, 495, 495, 495, 495, 495, 495, 494, 496, 495, 495, 494, 495, 495, 494, 495, 494, 495, 495, 495, 495, 495, 495, 494, 495, 495, 495, 494, 496, 495, 494, 495, 495, 495, 495, 495, 495, 495, 494, 495, 495, 495, 495, 496, 494, 496, 495, 494, 495, 494, 495, 495, 494, 494, 496, 496, 493, 495, 496, 494, 494, 496, 494, 495, 495, 496, 494, 495, 495, 494, 498, 494, 497, 498, 495, 495, 501, 491, 495, 499, 492, 495, 498, 496, 488, 497, 498, 495, 491, 497, 495, 495, 496, 488, 496, 501, 489, 494, 497, 500, 469, 491, 503, 493, 487, 493, 497, 490, 496, 495, 495, 489, 497, 499, 496, 499, 496, 494, 494, 494, 494, 489, 491, 494, 501, 494, 493, 495, 489, 491, 493, 489, 504, 486, 492, 495, 490, 496, 495, 489, 492, 500, 494, 499, 498, 494, 493, 490, 493, 492, 497, 496, 494, 492, 495, 499, 502, 485, 497, 498, 498, 495, 495, 493, 492, 498, 498, 494, 497, 488, 496, 497, 490, 493, 495, 478, 496, 494, 491, 492, 489, 494, 493, 494, 493, 494, 492, 500, 494, 495, 494, 493, 494, 493, 495, 497, 494, 495, 501, 494, 486, 494, 496, 494, 496, 492, 497, 493, 493, 496, 494, 493, 493, 500, 495, 490, 492, 494, 493, 493, 493, 493, 493, 495, 496, 495, 495, 495, 495, 494, 494, 494, 497, 495, 494, 495, 493, 493, 490, 495, 496, 485, 495, 494, 496, 496, 493, 500, 496, 496, 494, 494, 492, 495, 493, 492, 496, 492, 495, 493, 493, 497, 493, 497, 493, 494, 495, 492, 493, 494, 497, 493, 494, 492, 494, 499, 493, 496, 494, 494, 494, 494, 494, 494, 495, 489, 493, 493, 499, 496, 488, 501, 495, 493, 495, 492, 494, 492, 494, 495, 494, 492, 495, 493, 495, 492, 492, 494, 490, 493, 495, 494, 493, 494, 494, 494, 495, 495, 494, 495, 493, 487, 496, 489, 494, 494, 492, 493, 497, 495, 497, 498, 491, 496, 498, 495, 495, 492, 493, 496, 494, 494, 494, 496, 490, 494, 491, 494, 494, 489, 495, 494, 495, 492, 497, 496, 499, 495, 499, 494, 495, 494, 495, 494, 494, 494, 494, 493, 492, 489, 495, 493, 490, 498, 498, 497, 495, 495, 495, 490, 493, 490, 493, 497, 489, 493, 493, 493, 495, 495, 494, 495, 492, 495, 494, 492, 494, 494, 494, 495, 495, 494, 494, 497, 495, 492, 495, 494, 496, 493, 492, 494, 492, 495, 494, 495, 494, 493, 496, 497, 495, 494, 497, 492, 492, 495, 494, 494, 495, 494, 495, 494, 493, 494, 496, 495, 493, 494, 493, 496, 484, 497, 493, 495, 493, 495, 492, 495, 491, 496, 494, 494, 495, 494, 495, 496, 495, 495, 496, 497, 487, 497, 492, 486, 495, 495, 494, 495, 494, 494, 494, 496]"
6,rest,"[494, 495, 494, 495, 494, 496, 495, 495, 495, 495, 494, 494, 494, 495, 495, 494, 495, 491, 489, 493, 495, 494, 498, 489, 492, 497, 494, 490, 494, 493, 493, 495, 488, 508, 475, 495, 495, 495, 493, 492, 494, 494, 495, 493, 496, 494, 495, 497, 488, 493, 493, 492, 494, 496, 494, 495, 494, 493, 496, 494, 494, 494, 494, 494, 497, 491, 490, 498, 494, 489, 497, 494, 496, 495, 499, 492, 491, 495, 494, 496, 495, 494, 494, 496, 492, 492, 498, 494, 492, 496, 490, 495, 495, 482, 494, 494, 494, 494, 488, 498, 489, 494, 492, 499, 493, 493, 491, 494, 496, 493, 494, 495, 491, 499, 493, 494, 494, 494, 494, 495, 494, 494, 489, 494, 495, 494, 495, 495, 494, 495, 494, 494, 494, 495, 494, 494, 494, 495, 494, 494, 495, 494, 494, 494, 494, 494, 494, 494, 494, 494, 495, 493, 491, 502, 495, 494, 494, 495, 494, 494, 493, 496, 494, 494, 495, 494, 495, 494, 495, 494, 494, 494, 494, 494, 494, 495, 494, 491, 495, 497, 496, 492, 497, 495, 494, 495, 494, 494, 495, 494, 494, 494, 495, 495, 495, 495, 495, 495, 495, 495, 495, 494, 494, 494, 497, 495, 491, 498, 495, 495, 495, 495, 495, 495, 494, 495, 495, 495, 495, 495, 496, 495, 494, 496, 494, 493, 497, 497, 495, 495, 495, 495, 494, 495, 495, 495, 494, 494, 495, 494, 495, 495, 495, 494, 495, 492, 494, 498, 496, 495, 495, 495, 496, 495, 495, 495, 495, 492, 497, 495, 495, 495, 495, 495, 495, 495, 495, 495, 495, 496, 495, 496, 495, 495, 495, 495, 495, 495, 495, 495, 487, 505, 495, 496, 496, 495, 495, 497, 494, 495, 495, 494, 494, 495, 495, 495, 495, 495, 495, 494, 496, 495, 495, 495, 495, 494, 495, 496, 494, 494, 496, 495, 495, 495, 496, 496, 495, 495, 496, 495, 495, 495, 496, 496, 494, 494, 498, 494, 497, 496, 495, 496, 495, 495, 495, 495, 495, 495, 495, 495, 493, 499, 495, 496, 496, 495, 495, 495, 495, 496, 495, 495, 495, 495, 494, 494, 496, 494, 496, 495, 495, 496, 495, 495, 496, 495, 495, 495, 495, 495, 495, 495, 495, 495, 496, 494, 496, 495, 494, 494, 495, 495, 496, 495, 495, 495, 495, 492, 498, 495, 495, 495, 495, 494, 496, 496, 496, 495, 496, 495, 495, 496, 495, 495, 495, 495, 495, 497, 495, 496, 495, 494, 496, 494, 496, 496, 495, 495, 495, 495, 494, 495, 496, 495, 495, 494, 495, 494, 495, 496, 495, 492, 500, 497, 495, 495, 495, 495, 495, 495, 496, 495, 495, 496, 495, 495, 494, 497, 495, 495, 495, 495, 495, 494, 495, 495, 495, 495, 494, 495, 495, 495, 495, 494, 496, 494, 495, 496, 495, 492, 498, 495, 495, 496, 495, 495, 495, 496, 496, 495, 495, 496, 495, 495, 495, 496, 495, 495, 496, 495, 495, 495, 497, 496, 495, 494, 496, 497, 495, 495, 495, 495, 495, 496, 495, 496, 495, 493, 498, 495, 496, 495, 495, 496, 495, 495, 495, 494, 496, 495, 494, 497, 496, 495, 495, 495, 495, 495, 497, 496, 495, 495, 495, 495, 495, 494, 496, 494, 495, 495, 495, 496, 495, 495, 495, 495, 493, 496, 496, 494, 495, 494, 497, 495, 495, 496, 494, 494, 495, 495, 495, 494, 497, 495, 495, 495, 495, 494, 495, 495, 495, 495, 495, 495, 494, 494, 496]"
7,right,"[495, 495, 495, 495, 495, 496, 495, 497, 495, 495, 495, 495, 495, 495, 495, 495, 495, 492, 497, 495, 495, 493, 497, 496, 495, 495, 495, 495, 494, 495, 495, 494, 494, 494, 494, 494, 494, 496, 490, 497, 496, 495, 495, 494, 495, 494, 495, 495, 495, 495, 495, 495, 495, 494, 495, 496, 495, 493, 497, 495, 493, 495, 495, 495, 495, 496, 496, 494, 494, 495, 495, 495, 495, 495, 494, 495, 493, 496, 495, 496, 495, 495, 495, 495, 495, 494, 495, 494, 495, 495, 495, 494, 494, 495, 494, 495, 494, 495, 495, 494, 496, 493, 497, 495, 495, 495, 494, 495, 493, 496, 495, 495, 494, 495, 496, 496, 494, 495, 496, 494, 495, 495, 495, 495, 495, 495, 494, 494, 495, 495, 494, 494, 495, 495, 495, 495, 494, 494, 499, 495, 495, 498, 495, 496, 495, 491, 494, 496, 494, 496, 495, 495, 493, 495, 496, 496, 495, 494, 497, 496, 496, 491, 492, 495, 497, 495, 494, 493, 497, 495, 498, 492, 495, 494, 492, 498, 477, 511, 495, 493, 497, 495, 494, 496, 494, 495, 493, 495, 497, 487, 493, 496, 497, 494, 494, 492, 487, 498, 495, 494, 494, 504, 493, 491, 489, 495, 499, 490, 497, 492, 497, 493, 492, 490, 494, 493, 497, 494, 495, 489, 491, 490, 496, 494, 498, 496, 501, 483, 496, 490, 494, 493, 504, 499, 487, 494, 492, 497, 492, 492, 494, 493, 496, 491, 493, 502, 489, 502, 491, 495, 497, 496, 490, 502, 501, 491, 499, 497, 494, 495, 494, 497, 489, 493, 495, 499, 494, 496, 493, 476, 497, 490, 501, 486, 499, 493, 495, 497, 494, 490, 494, 494, 494, 495, 491, 498, 493, 494, 491, 499, 499, 494, 495, 495, 491, 494, 493, 493, 500, 483, 494, 493, 494, 492, 489, 495, 495, 495, 488, 493, 491, 493, 496, 496, 501, 493, 496, 494, 494, 488, 490, 492, 490, 497, 495, 503, 487, 501, 496, 495, 495, 494, 495, 490, 496, 494, 492, 493, 490, 493, 497, 494, 495, 499, 487, 495, 488, 494, 495, 493, 497, 494, 494, 489, 485, 495, 494, 491, 496, 494, 494, 492, 495, 492, 491, 490, 491, 497, 494, 494, 489, 501, 489, 496, 496, 494, 491, 496, 489, 495, 490, 492, 496, 495, 485, 490, 494, 493, 495, 494, 493, 493, 499, 503, 494, 495, 498, 497, 494, 494, 495, 495, 485, 493, 493, 492, 494, 497, 497, 495, 492, 494, 495, 493, 495, 494, 495, 495, 498, 495, 493, 495, 495, 496, 497, 495, 494, 494, 495, 487, 492, 490, 494, 495, 496, 495, 495, 501, 481, 495, 495, 496, 495, 497, 491, 489, 490, 492, 491, 496, 496, 494, 495, 494, 494, 494, 494, 495, 490, 493, 494, 494, 474, 496, 497, 500, 495, 494, 495, 494, 494, 495, 499, 489, 494, 500, 494, 492, 493, 493, 494, 492, 495, 496, 495, 495, 493, 495, 496, 494, 494, 494, 494, 494, 496, 493, 495, 496, 496, 497, 497, 498, 493, 496, 491, 496, 497, 492, 494, 490, 491, 492, 494, 493, 494, 496, 495, 492, 494, 496, 495, 489, 492, 495, 493, 492, 496, 488, 495, 495, 497, 495, 492, 499, 493, 494, 499, 496, 493, 493, 494, 487, 496, 495, 492, 493, 494, 495, 494, 495, 490, 498, 489, 485, 495, 497, 494, 499, 492, 494, 496, 500, 494, 495, 496, 490, 492, 494, 490, 498, 494, 495, 497, 492, 492, 493]"
8,rest,"[494, 495, 497, 496, 494, 494, 496, 494, 493, 493, 491, 494, 497, 502, 494, 483, 493, 495, 497, 494, 491, 494, 499, 496, 495, 491, 497, 498, 492, 494, 495, 494, 499, 493, 495, 494, 491, 499, 491, 494, 493, 494, 494, 495, 491, 488, 493, 495, 496, 497, 494, 495, 494, 492, 494, 494, 494, 494, 494, 496, 498, 495, 498, 488, 493, 485, 493, 494, 495, 492, 494, 494, 496, 497, 496, 492, 494, 494, 493, 495, 500, 494, 504, 494, 494, 497, 493, 494, 493, 495, 498, 493, 494, 496, 494, 496, 493, 494, 496, 495, 489, 492, 494, 494, 495, 494, 494, 496, 496, 495, 496, 491, 496, 493, 494, 495, 497, 496, 494, 494, 498, 495, 494, 494, 495, 494, 494, 494, 494, 494, 494, 495, 496, 496, 493, 493, 495, 495, 494, 494, 494, 494, 495, 494, 494, 495, 494, 494, 494, 495, 494, 494, 495, 494, 494, 494, 495, 494, 494, 490, 496, 495, 494, 495, 495, 495, 493, 494, 495, 495, 494, 494, 494, 495, 495, 494, 492, 490, 495, 496, 495, 495, 494, 496, 494, 494, 494, 493, 495, 495, 496, 495, 495, 495, 495, 495, 494, 496, 494, 495, 495, 494, 491, 502, 496, 496, 496, 495, 495, 495, 495, 495, 495, 495, 495, 495, 495, 495, 496, 495, 495, 493, 497, 495, 494, 496, 495, 494, 494, 494, 488, 499, 491, 498, 497, 495, 496, 495, 496, 496, 495, 495, 495, 495, 495, 495, 496, 494, 495, 493, 492, 500, 496, 495, 495, 492, 497, 495, 495, 494, 495, 494, 494, 494, 496, 495, 495, 494, 495, 495, 492, 500, 496, 495, 495, 495, 494, 494, 494, 495, 494, 495, 495, 496, 494, 493, 498, 495, 496, 496, 494, 494, 495, 496, 495, 496, 495, 495, 494, 495, 492, 497, 495, 495, 495, 495, 494, 498, 495, 495, 495, 496, 495, 495, 494, 495, 495, 495, 495, 495, 495, 491, 497, 496, 495, 492, 494, 496, 496, 495, 494, 495, 495, 495, 495, 495, 495, 495, 495, 494, 495, 495, 495, 494, 497, 497, 490, 497, 495, 495, 495, 495, 495, 495, 495, 495, 495, 495, 495, 495, 495, 496, 493, 497, 494, 495, 495, 496, 493, 495, 496, 496, 495, 495, 495, 495, 494, 495, 495, 496, 495, 495, 496, 495, 495, 493, 497, 496, 494, 495, 492, 495, 496, 497, 496, 495, 495, 495, 495, 495, 495, 495, 494, 496, 495, 495, 494, 495, 495, 494, 493, 497, 492, 495, 495, 495, 495, 495, 495, 495, 495, 495, 495, 495, 495, 494, 495, 496, 493, 498, 495, 492, 495, 494, 497, 495, 495, 495, 496, 495, 495, 495, 495, 494, 494, 495, 497, 495, 493, 494, 494, 495, 495, 495, 494, 495, 495, 495, 495, 495, 494, 494, 492, 494, 495, 496, 496, 495, 494, 495, 495, 491, 495, 496, 496, 495, 495, 495, 495, 494, 495, 492, 495, 497, 496, 496, 495, 495, 495, 496, 492, 495, 495, 496, 495, 494, 496, 495, 494, 495, 494, 495, 492, 494, 495, 495, 495, 495, 495, 492, 498, 496, 495, 495, 495, 494, 495, 494, 495, 492, 498, 494, 496, 495, 494, 495, 495, 494, 494, 495, 494, 494, 494, 495, 495, 490, 496, 496, 495, 496, 495, 495, 494, 494, 495, 494, 495, 495, 495, 495, 494, 496, 493, 495, 495, 495, 495, 495, 496, 494, 495, 495, 494, 495, 495, 495, 494, 496, 494, 494, 494, 497, 497, 494, 495, 497, 494]"
9,right,"[495, 496, 494, 494, 494, 494, 495, 495, 495, 495, 492, 495, 495, 496, 494, 495, 491, 498, 495, 494, 495, 495, 495, 495, 494, 495, 495, 494, 494, 494, 494, 490, 495, 494, 496, 498, 496, 495, 494, 495, 494, 495, 495, 494, 495, 494, 495, 494, 493, 498, 493, 490, 495, 495, 494, 495, 495, 495, 494, 495, 495, 494, 495, 495, 495, 495, 494, 495, 494, 494, 495, 495, 495, 496, 495, 491, 497, 495, 494, 498, 495, 495, 495, 494, 496, 494, 495, 495, 495, 495, 494, 495, 495, 494, 495, 492, 496, 494, 495, 495, 496, 494, 494, 496, 495, 495, 494, 495, 495, 495, 494, 494, 495, 494, 495, 493, 497, 495, 495, 496, 494, 498, 494, 495, 495, 495, 495, 494, 494, 495, 494, 494, 494, 494, 495, 494, 491, 499, 492, 493, 495, 494, 494, 495, 495, 496, 494, 496, 496, 494, 495, 495, 495, 494, 496, 498, 495, 496, 495, 494, 498, 496, 496, 495, 496, 495, 494, 495, 499, 493, 497, 495, 491, 494, 498, 495, 494, 495, 495, 495, 499, 491, 501, 482, 498, 503, 496, 494, 495, 498, 496, 495, 489, 494, 491, 495, 498, 495, 496, 492, 496, 496, 495, 482, 495, 505, 495, 487, 502, 494, 494, 494, 501, 500, 501, 493, 499, 493, 496, 488, 498, 492, 493, 494, 492, 490, 491, 495, 496, 491, 495, 486, 494, 492, 490, 494, 489, 494, 497, 492, 498, 502, 497, 504, 503, 494, 492, 487, 503, 492, 496, 492, 482, 493, 494, 495, 494, 506, 496, 492, 490, 494, 495, 495, 490, 492, 494, 504, 495, 494, 494, 504, 490, 496, 494, 494, 500, 490, 495, 498, 494, 494, 493, 496, 495, 494, 495, 494, 497, 492, 501, 495, 494, 494, 497, 494, 494, 495, 493, 493, 504, 495, 493, 494, 493, 495, 495, 494, 491, 495, 504, 479, 493, 500, 493, 494, 489, 494, 497, 495, 497, 491, 494, 489, 495, 497, 498, 494, 494, 495, 490, 494, 491, 496, 496, 495, 496, 497, 493, 496, 505, 490, 497, 497, 494, 495, 490, 493, 490, 491, 497, 487, 495, 498, 491, 498, 491, 493, 494, 494, 494, 496, 494, 495, 493, 494, 496, 494, 498, 494, 494, 492, 496, 492, 495, 497, 494, 494, 494, 494, 495, 493, 493, 495, 496, 494, 494, 496, 495, 494, 493, 495, 492, 495, 491, 500, 493, 494, 494, 494, 494, 498, 493, 494, 492, 492, 494, 494, 494, 496, 498, 497, 495, 493, 495, 493, 496, 495, 498, 494, 498, 485, 497, 493, 492, 494, 495, 493, 492, 496, 492, 488, 493, 499, 496, 493, 493, 494, 492, 494, 495, 492, 497, 491, 496, 492, 494, 494, 494, 493, 496, 495, 488, 493, 495, 496, 494, 494, 494, 497, 494, 498, 494, 495, 489, 494, 502, 491, 492, 492, 493, 497, 494, 495, 495, 498, 494, 494, 494, 497, 497, 492, 495, 495, 493, 493, 502, 492, 495, 497, 491, 494, 495, 493, 492, 494, 495, 492, 492, 495, 493, 496, 494, 498, 495, 496, 493, 500, 495, 493, 492, 494, 497, 495, 494, 491, 494, 492, 495, 494, 494, 494, 494, 498, 496, 501, 494, 494, 494, 494, 494, 493, 494, 491, 493, 495, 497, 496, 494, 493, 495, 496, 494, 494, 494, 493, 496, 493, 497, 494, 493, 498, 495, 495, 491, 495, 496, 499, 492, 495, 493, 494, 495, 492, 490, 496, 491, 490, 494, 493, 495, 494, 494, 494, 493, 494, 493]"
10,rest,"[496, 497, 493, 495, 494, 494, 494, 495, 494, 496, 493, 493, 495, 495, 493, 492, 491, 494, 493, 494, 496, 490, 493, 494, 495, 497, 495, 492, 493, 491, 496, 493, 497, 492, 496, 496, 495, 495, 494, 491, 494, 493, 493, 490, 494, 496, 493, 491, 497, 493, 494, 496, 497, 491, 490, 493, 490, 493, 496, 492, 498, 492, 493, 494, 495, 494, 494, 497, 494, 494, 495, 494, 497, 494, 494, 495, 493, 498, 492, 500, 493, 493, 491, 495, 494, 493, 495, 493, 488, 494, 494, 493, 492, 494, 495, 494, 499, 496, 494, 496, 494, 496, 495, 493, 495, 494, 493, 495, 495, 489, 494, 494, 493, 493, 495, 494, 494, 497, 494, 494, 495, 495, 496, 496, 494, 494, 494, 495, 495, 494, 494, 495, 494, 494, 494, 496, 494, 494, 495, 495, 494, 494, 494, 494, 494, 494, 495, 495, 494, 495, 494, 494, 494, 494, 494, 494, 495, 494, 495, 495, 495, 495, 494, 495, 495, 495, 494, 496, 495, 495, 495, 495, 495, 495, 495, 496, 495, 495, 495, 496, 494, 494, 496, 496, 496, 495, 495, 495, 496, 495, 495, 495, 495, 495, 495, 495, 495, 495, 496, 495, 495, 495, 495, 495, 495, 495, 495, 495, 496, 495, 494, 494, 496, 495, 495, 495, 494, 495, 495, 495, 494, 496, 495, 495, 495, 495, 495, 495, 495, 495, 494, 494, 495, 495, 496, 495, 496, 495, 495, 495, 495, 495, 495, 496, 495, 495, 495, 495, 495, 495, 496, 495, 495, 495, 495, 495, 495, 496, 495, 494, 495, 495, 495, 495, 496, 494, 495, 495, 496, 495, 495, 495, 495, 495, 495, 496, 495, 495, 496, 495, 495, 495, 496, 495, 495, 496, 494, 495, 495, 495, 495, 495, 496, 495, 495, 494, 495, 495, 495, 496, 495, 495, 495, 493, 495, 495, 495, 495, 496, 495, 495, 496, 495, 496, 495, 496, 495, 495, 495, 496, 496, 494, 495, 495, 495, 495, 495, 495, 495, 495, 495, 495, 495, 495, 495, 495, 495, 496, 495, 495, 495, 495, 495, 494, 494, 495, 495, 495, 496, 493, 497, 495, 496, 495, 495, 495, 495, 494, 495, 495, 495, 495, 495, 496, 495, 495, 496, 495, 495, 495, 496, 495, 495, 495, 495, 495, 495, 495, 495, 495, 495, 495, 495, 495, 494, 495, 495, 495, 495, 495, 495, 494, 496, 495, 494, 495, 495, 495, 494, 494, 496, 495, 494, 495, 495, 495, 494, 496, 495, 495, 495, 495, 495, 494, 494, 495, 495, 495, 496, 495, 495, 495, 495, 495, 495, 495, 494, 495, 496, 495, 495, 495, 495, 495, 496, 496, 495, 496, 495, 495, 495, 495, 495, 494, 495, 495, 494, 495, 494, 496, 495, 495, 495, 495, 495, 495, 495, 494, 496, 495, 494, 495, 494, 496, 495, 495, 496, 495, 495, 494, 495, 495, 495, 495, 496, 495, 495, 495, 495, 495, 495, 495, 495, 495, 495, 495, 494, 495, 495, 495, 495, 494, 496, 495, 495, 494, 495, 495, 495, 495, 494, 495, 495, 496, 494, 495, 495, 496, 495, 495, 494, 495, 495, 495, 495, 495, 495, 495, 495, 495, 494, 495, 496, 494, 495, 495, 495, 494, 494, 495, 493, 496, 495, 495, 495, 494, 495, 495, 495, 495, 495, 494, 495, 495, 495, 495, 494, 495, 494, 495, 496, 495, 495, 495, 495, 494, 494, 495, 495, 494, 494, 495, 494, 494, 496, 495, 494, 493, 497, 495, 495, 496, 495, 495, 495, 495, 495]"
11,right,"[495, 495, 495, 495, 495, 494, 495, 495, 495, 493, 494, 495, 494, 494, 495, 495, 495, 495, 495, 495, 495, 495, 495, 494, 495, 494, 495, 495, 494, 494, 495, 494, 495, 495, 495, 495, 495, 495, 494, 494, 496, 495, 494, 496, 495, 494, 495, 495, 495, 495, 495, 495, 495, 495, 495, 495, 494, 495, 494, 495, 494, 495, 496, 494, 495, 494, 495, 495, 495, 495, 494, 495, 494, 495, 495, 495, 494, 495, 495, 495, 494, 494, 495, 495, 495, 495, 494, 495, 494, 494, 495, 494, 495, 496, 495, 495, 495, 494, 494, 496, 495, 494, 495, 494, 495, 493, 496, 493, 495, 500, 495, 494, 494, 496, 496, 498, 495, 495, 494, 495, 495, 495, 494, 495, 494, 497, 495, 494, 497, 500, 492, 493, 492, 495, 494, 494, 493, 496, 501, 493, 497, 493, 494, 495, 497, 494, 494, 495, 499, 493, 501, 495, 494, 493, 496, 497, 497, 499, 493, 496, 496, 504, 488, 494, 502, 492, 501, 494, 494, 495, 494, 500, 492, 494, 496, 503, 487, 492, 494, 494, 494, 491, 495, 482, 495, 490, 494, 493, 496, 492, 494, 501, 489, 498, 488, 500, 475, 492, 499, 499, 494, 495, 493, 494, 495, 496, 501, 488, 489, 495, 490, 492, 497, 494, 493, 492, 494, 493, 494, 496, 494, 503, 493, 494, 496, 494, 491, 493, 511, 487, 487, 491, 495, 493, 495, 496, 493, 496, 494, 494, 495, 491, 494, 495, 492, 495, 492, 504, 495, 487, 496, 494, 496, 497, 499, 496, 494, 494, 495, 494, 495, 498, 492, 496, 490, 497, 492, 494, 497, 492, 498, 492, 492, 495, 494, 495, 487, 498, 492, 495, 491, 495, 497, 494, 494, 491, 495, 496, 493, 498, 494, 494, 493, 496, 490, 496, 493, 494, 493, 493, 496, 494, 497, 500, 495, 495, 494, 495, 494, 498, 493, 494, 494, 494, 495, 495, 495, 505, 495, 493, 494, 492, 495, 491, 496, 494, 494, 494, 496, 494, 494, 494, 493, 496, 494, 495, 495, 501, 497, 493, 498, 490, 493, 493, 496, 494, 499, 492, 491, 496, 502, 492, 493, 494, 494, 493, 492, 493, 493, 494, 494, 494, 494, 494, 494, 494, 497, 495, 494, 494, 492, 493, 490, 495, 493, 493, 489, 495, 495, 496, 494, 493, 494, 492, 493, 494, 490, 496, 496, 492, 505, 494, 496, 494, 492, 494, 493, 494, 494, 495, 494, 494, 495, 495, 508, 494, 494, 494, 496, 495, 493, 494, 495, 493, 493, 494, 494, 501, 492, 494, 494, 493, 494, 495, 493, 494, 494, 496, 500, 496, 495, 496, 492, 494, 493, 492, 494, 495, 495, 493, 495, 498, 491, 494, 495, 495, 496, 493, 495, 498, 494, 493, 496, 495, 495, 494, 490, 495, 496, 495, 494, 494, 493, 494, 495, 496, 493, 493, 496, 495, 493, 492, 495, 492, 492, 490, 491, 493, 494, 494, 496, 499, 486, 497, 495, 492, 491, 494, 493, 495, 494, 495, 495, 496, 484, 494, 495, 495, 495, 495, 496, 493, 493, 494, 494, 494, 496, 497, 494, 492, 495, 495, 498, 499, 493, 497, 495, 495, 497, 495, 496, 495, 494, 497, 495, 493, 502, 494, 493, 496, 492, 494, 494, 494, 494, 497, 495, 494, 498, 497, 492, 499, 492, 497, 493, 496, 496, 494, 500, 496, 490, 495, 491, 497, 491, 492, 492, 498, 495, 495, 498, 499, 494, 494, 497, 496, 492, 492, 493, 493, 497, 495, 495, 495, 496, 494]"
12,rest,"[495, 494, 497, 489, 496, 494, 494, 491, 493, 496, 495, 495, 494, 497, 494, 499, 495, 494, 491, 496, 491, 494, 497, 490, 496, 495, 494, 493, 494, 494, 496, 494, 493, 502, 492, 498, 492, 494, 493, 496, 496, 497, 490, 496, 495, 494, 493, 494, 493, 493, 495, 495, 495, 493, 495, 491, 493, 496, 494, 493, 499, 493, 497, 493, 493, 495, 494, 494, 492, 494, 495, 494, 496, 496, 490, 492, 490, 497, 495, 493, 494, 495, 493, 495, 494, 491, 492, 490, 491, 494, 494, 494, 493, 493, 496, 495, 493, 494, 491, 495, 488, 498, 494, 486, 496, 489, 496, 495, 494, 497, 493, 493, 494, 495, 493, 494, 496, 494, 492, 493, 494, 493, 493, 492, 495, 494, 494, 493, 494, 492, 493, 495, 494, 494, 494, 494, 494, 494, 494, 494, 495, 494, 494, 493, 494, 494, 494, 495, 493, 494, 494, 494, 493, 494, 493, 494, 489, 496, 494, 495, 494, 495, 495, 494, 494, 495, 494, 494, 495, 494, 494, 494, 495, 494, 494, 495, 494, 494, 494, 495, 494, 494, 495, 494, 494, 494, 494, 494, 494, 495, 495, 494, 494, 496, 496, 495, 495, 494, 495, 494, 494, 496, 494, 495, 495, 495, 495, 494, 494, 495, 495, 494, 495, 495, 495, 494, 496, 495, 494, 494, 495, 495, 495, 495, 495, 495, 495, 495, 492, 496, 495, 496, 495, 494, 495, 495, 495, 495, 496, 495, 495, 495, 495, 495, 494, 495, 495, 495, 494, 495, 495, 494, 495, 495, 495, 495, 495, 494, 495, 495, 495, 496, 495, 495, 495, 495, 495, 495, 496, 495, 495, 495, 495, 495, 495, 496, 495, 495, 495, 495, 495, 495, 496, 496, 495, 495, 496, 495, 495, 495, 496, 495, 495, 495, 495, 495, 495, 495, 494, 496, 495, 495, 494, 495, 495, 495, 495, 495, 495, 495, 495, 495, 495, 495, 495, 495, 495, 494, 494, 496, 494, 495, 495, 495, 494, 497, 495, 495, 495, 495, 495, 495, 495, 495, 495, 495, 495, 494, 495, 496, 494, 495, 493, 496, 496, 496, 495, 495, 495, 495, 495, 495, 495, 496, 495, 495, 495, 495, 495, 494, 496, 495, 494, 495, 495, 495, 495, 495, 494, 494, 496, 496, 495, 495, 495, 495, 495, 494, 496, 496, 495, 495, 495, 495, 495, 495, 495, 495, 495, 495, 495, 495, 495, 495, 495, 495, 495, 495, 495, 495, 496, 494, 496, 495, 496, 495, 495, 495, 495, 495, 495, 495, 495, 494, 495, 495, 495, 495, 494, 495, 495, 495, 496, 494, 495, 495, 496, 495, 495, 494, 496, 495, 495, 495, 495, 495, 495, 496, 495, 495, 496, 495, 495, 495, 495, 495, 495, 495, 495, 495, 495, 495, 496, 495, 496, 494, 495, 494, 495, 495, 495, 496, 494, 496, 495, 495, 495, 495, 495, 496, 495, 495, 495, 495, 495, 496, 494, 495, 495, 496, 495, 495, 495, 495, 495, 497, 495, 495, 495, 496, 495, 495, 495, 495, 495, 495, 496, 495, 495, 495, 495, 495, 495, 496, 495, 495, 495, 496, 495, 495, 495, 495, 495, 495, 495, 496, 495, 495, 496, 495, 495, 495, 495, 495, 496, 494, 496, 495, 495, 495, 494, 496, 495, 495, 494, 495, 495, 496, 495, 495, 497, 495, 495, 495, 495, 495, 495, 495, 495, 494, 495, 495, 495, 495, 495, 495, 495, 495, 494, 495, 495, 495, 495, 495, 495, 495, 495, 495, 495, 495, 495, 495, 494, 496, 495, 495, 496]"
13,right,"[495, 495, 495, 495, 495, 494, 496, 495, 495, 495, 495, 496, 495, 495, 494, 494, 495, 495, 495, 494, 495, 494, 495, 495, 495, 494, 495, 495, 494, 495, 495, 495, 495, 495, 495, 495, 495, 495, 495, 495, 495, 495, 494, 495, 495, 495, 494, 494, 495, 494, 495, 495, 495, 495, 495, 496, 495, 495, 495, 495, 495, 495, 496, 495, 494, 495, 495, 494, 494, 496, 495, 495, 494, 495, 495, 495, 495, 494, 494, 495, 494, 495, 495, 495, 495, 495, 495, 495, 495, 493, 495, 495, 494, 495, 495, 494, 495, 495, 494, 495, 495, 495, 494, 495, 495, 494, 495, 495, 495, 495, 498, 494, 494, 495, 494, 496, 494, 497, 494, 495, 501, 495, 492, 495, 494, 495, 493, 494, 495, 496, 495, 494, 495, 495, 495, 494, 499, 500, 494, 495, 495, 496, 497, 495, 496, 493, 497, 487, 494, 496, 493, 494, 501, 500, 490, 497, 485, 494, 502, 494, 499, 494, 495, 480, 499, 488, 502, 485, 497, 491, 495, 496, 481, 498, 495, 495, 493, 496, 497, 491, 498, 488, 491, 505, 499, 490, 485, 496, 492, 503, 492, 493, 496, 484, 495, 496, 501, 493, 493, 488, 498, 495, 498, 500, 482, 498, 501, 490, 494, 495, 494, 487, 492, 489, 489, 495, 487, 490, 490, 483, 493, 493, 494, 494, 488, 496, 497, 493, 492, 502, 490, 494, 492, 498, 495, 487, 495, 496, 496, 494, 498, 491, 494, 493, 495, 493, 492, 496, 498, 487, 497, 494, 494, 498, 495, 495, 493, 493, 491, 494, 495, 496, 493, 493, 492, 495, 492, 494, 498, 495, 493, 498, 494, 495, 493, 494, 495, 496, 498, 502, 493, 492, 494, 493, 500, 494, 500, 493, 494, 493, 489, 487, 496, 497, 494, 490, 492, 501, 493, 493, 494, 489, 495, 493, 493, 494, 499, 492, 495, 494, 488, 491, 497, 500, 492, 495, 498, 490, 497, 490, 493, 500, 492, 493, 493, 494, 495, 496, 492, 496, 488, 495, 493, 491, 495, 493, 493, 492, 501, 496, 492, 493, 496, 493, 493, 494, 494, 494, 495, 493, 496, 489, 501, 497, 494, 499, 494, 496, 496, 494, 496, 494, 494, 493, 493, 497, 497, 491, 496, 493, 492, 493, 494, 491, 492, 503, 491, 491, 501, 490, 495, 498, 493, 491, 496, 494, 494, 496, 497, 493, 493, 493, 496, 492, 492, 485, 498, 492, 493, 491, 495, 494, 494, 494, 495, 493, 493, 495, 494, 485, 499, 494, 492, 498, 490, 494, 494, 494, 494, 497, 492, 495, 492, 494, 495, 495, 488, 493, 499, 494, 497, 493, 494, 495, 495, 493, 494, 501, 492, 493, 494, 496, 490, 494, 499, 501, 485, 497, 494, 495, 495, 494, 493, 488, 494, 493, 496, 492, 487, 492, 495, 496, 492, 495, 494, 485, 496, 496, 494, 493, 494, 496, 494, 502, 494, 496, 492, 499, 484, 509, 498, 496, 493, 500, 498, 499, 494, 493, 495, 494, 494, 494, 494, 484, 494, 499, 494, 494, 495, 496, 495, 495, 494, 494, 495, 493, 495, 493, 492, 500, 493, 493, 486, 494, 495, 495, 496, 496, 494, 492, 498, 493, 491, 492, 487, 495, 495, 496, 491, 499, 494, 495, 489, 495, 496, 494, 494, 494, 494, 491, 493, 495, 487, 497, 498, 487, 497, 501, 495, 494, 494, 492, 494, 495, 495, 496, 494, 494, 494, 493, 495, 495, 493, 490, 494, 502, 491, 484, 496, 495, 497, 495, 494, 496, 494, 496, 492]"
14,rest,"[491, 495, 477, 499, 497, 490, 494, 492, 500, 497, 494, 494, 493, 496, 490, 500, 495, 493, 494, 498, 496, 497, 494, 494, 494, 492, 495, 497, 492, 496, 495, 495, 497, 494, 495, 495, 495, 493, 494, 495, 497, 482, 502, 495, 501, 497, 488, 494, 495, 495, 495, 494, 495, 495, 494, 491, 502, 485, 486, 489, 495, 501, 493, 494, 493, 494, 494, 495, 495, 495, 487, 494, 495, 490, 495, 486, 493, 491, 496, 496, 482, 496, 493, 496, 494, 496, 495, 494, 495, 496, 494, 496, 494, 494, 495, 492, 500, 486, 495, 491, 494, 495, 495, 495, 494, 494, 495, 494, 494, 494, 494, 495, 494, 495, 494, 494, 495, 494, 495, 495, 495, 495, 495, 495, 494, 495, 495, 494, 495, 495, 495, 495, 495, 495, 496, 495, 493, 496, 493, 499, 495, 496, 496, 495, 495, 495, 495, 495, 495, 495, 495, 495, 495, 495, 496, 495, 495, 495, 496, 494, 494, 494, 487, 504, 496, 496, 495, 495, 495, 495, 495, 496, 496, 495, 495, 495, 495, 495, 495, 496, 495, 495, 495, 495, 494, 499, 495, 495, 492, 498, 496, 492, 496, 496, 495, 495, 495, 495, 495, 496, 496, 495, 496, 496, 495, 495, 495, 495, 495, 494, 494, 496, 496, 495, 495, 495, 495, 495, 496, 495, 495, 495, 495, 495, 494, 496, 495, 495, 491, 500, 495, 499, 496, 496, 495, 495, 495, 495, 495, 495, 494, 495, 495, 495, 495, 495, 495, 495, 495, 495, 495, 495, 495, 495, 495, 493, 496, 495, 495, 495, 492, 491, 498, 495, 495, 495, 495, 496, 495, 495, 495, 495, 495, 495, 496, 495, 495, 495, 495, 494, 495, 495, 494, 494, 495, 495, 495, 496, 495, 496, 495, 495, 495, 495, 496, 495, 495, 495, 495, 494, 493, 500, 496, 495, 495, 495, 495, 495, 495, 495, 494, 496, 495, 495, 495, 495, 495, 495, 495, 494, 497, 496, 496, 496, 495, 495, 495, 495, 493, 497, 495, 495, 495, 497, 495, 495, 496, 494, 495, 492, 496, 495, 495, 496, 495, 495, 495, 496, 495, 495, 495, 495, 495, 494, 496, 496, 495, 495, 494, 496, 495, 495, 494, 496, 496, 495, 495, 494, 497, 494, 495, 495, 496, 495, 496, 494, 496, 495, 496, 495, 495, 495, 495, 495, 495, 496, 495, 496, 494, 495, 495, 494, 496, 496, 495, 495, 494, 495, 495, 495, 494, 495, 495, 496, 495, 495, 495, 496, 493, 496, 495, 495, 496, 495, 495, 495, 495, 495, 495, 495, 496, 495, 495, 494, 495, 495, 494, 495, 496, 495, 495, 495, 495, 495, 496, 495, 494, 494, 495, 495, 495, 495, 495, 494, 493, 497, 494, 496, 494, 497, 495, 495, 495, 494, 495, 495, 495, 494, 495, 496, 495, 495, 496, 495, 493, 497, 493, 496, 496, 495, 495, 495, 495, 494, 495, 495, 495, 494, 495, 496, 495, 495, 495, 495, 495, 494, 495, 495, 492, 496, 493, 496, 495, 495, 496, 495, 494, 495, 495, 495, 496, 494, 495, 496, 495, 495, 494, 493, 492, 498, 495, 495, 496, 493, 496, 495, 495, 495, 495, 494, 494, 495, 495, 495, 494, 495, 495, 495, 495, 495, 495, 493, 494, 496, 495, 495, 495, 494, 495, 495, 495, 494, 495, 494, 494, 496, 495, 494, 495, 495, 494, 495, 494, 498, 495, 495, 495, 495, 494, 494, 495, 495, 494, 495, 495, 494, 496, 494, 492, 496, 495, 495, 495, 495, 494, 495, 495]"
15,right,"[495, 494, 495, 495, 494, 496, 494, 495, 495, 495, 495, 497, 495, 495, 495, 494, 496, 495, 495, 494, 494, 495, 494, 494, 499, 495, 495, 494, 495, 495, 495, 496, 494, 496, 494, 494, 495, 494, 496, 495, 495, 495, 495, 495, 493, 496, 495, 495, 494, 494, 495, 496, 495, 494, 495, 495, 494, 495, 495, 494, 494, 494, 496, 494, 495, 495, 493, 495, 494, 495, 495, 495, 494, 495, 494, 495, 495, 494, 494, 495, 495, 495, 495, 493, 498, 496, 495, 496, 494, 495, 495, 495, 495, 494, 495, 494, 495, 495, 495, 495, 495, 495, 493, 496, 495, 495, 495, 495, 494, 497, 493, 500, 496, 494, 494, 496, 494, 495, 495, 496, 495, 496, 496, 496, 495, 493, 494, 495, 497, 496, 498, 498, 491, 502, 488, 497, 495, 496, 496, 496, 498, 492, 494, 495, 505, 489, 490, 490, 498, 481, 502, 498, 495, 500, 493, 495, 496, 494, 500, 493, 492, 494, 497, 488, 495, 491, 507, 480, 498, 493, 497, 486, 487, 496, 497, 492, 497, 499, 479, 486, 500, 492, 500, 493, 490, 492, 493, 493, 492, 496, 494, 499, 499, 493, 487, 511, 494, 490, 494, 508, 491, 487, 496, 493, 487, 487, 499, 496, 490, 508, 492, 495, 494, 497, 492, 495, 493, 487, 498, 492, 497, 498, 495, 499, 494, 485, 496, 491, 483, 494, 493, 492, 498, 496, 498, 493, 495, 494, 479, 503, 501, 482, 498, 503, 484, 495, 497, 489, 496, 498, 493, 499, 489, 499, 496, 499, 493, 493, 495, 494, 502, 495, 505, 493, 478, 498, 477, 496, 497, 489, 496, 499, 483, 493, 494, 493, 498, 492, 498, 482, 494, 498, 495, 491, 492, 498, 494, 495, 495, 497, 495, 496, 493, 495, 482, 497, 495, 490, 502, 495, 494, 499, 495, 495, 493, 495, 496, 498, 498, 494, 488, 493, 491, 505, 496, 494, 496, 497, 497, 494, 496, 496, 495, 492, 492, 492, 499, 494, 488, 488, 496, 493, 496, 500, 486, 493, 494, 494, 495, 495, 488, 492, 500, 492, 490, 492, 496, 498, 493, 497, 497, 495, 499, 493, 494, 499, 498, 489, 499, 498, 496, 496, 493, 490, 492, 495, 495, 497, 498, 495, 494, 499, 493, 495, 495, 494, 500, 492, 495, 493, 494, 497, 488, 494, 496, 498, 491, 500, 498, 497, 493, 495, 496, 495, 495, 495, 491, 494, 490, 492, 497, 471, 497, 492, 497, 497, 496, 494, 493, 494, 495, 498, 498, 496, 493, 494, 495, 498, 499, 487, 492, 495, 492, 495, 495, 496, 495, 489, 497, 494, 494, 488, 502, 493, 495, 491, 493, 496, 495, 499, 492, 492, 496, 493, 493, 494, 494, 494, 487, 497, 493, 495, 493, 494, 495, 493, 494, 492, 494, 498, 495, 499, 491, 497, 495, 495, 495, 496, 496, 494, 496, 495, 492, 512, 491, 484, 498, 494, 492, 497, 494, 497, 494, 492, 491, 493, 488, 499, 495, 497, 488, 498, 497, 494, 496, 495, 494, 495, 495, 494, 495, 490, 496, 499, 492, 494, 502, 491, 499, 493, 493, 494, 497, 494, 493, 495, 494, 496, 495, 491, 491, 494, 496, 496, 499, 496, 497, 494, 494, 495, 494, 493, 498, 495, 495, 496, 494, 488, 505, 495, 495, 495, 498, 494, 495, 498, 488, 494, 496, 492, 497, 495, 499, 494, 493, 494, 494, 494, 494, 492, 494, 496, 492, 495, 494, 495, 496, 498, 496, 494, 498, 491, 496, 494, 495, 498]"
16,rest,"[493, 497, 491, 493, 495, 495, 496, 495, 502, 498, 496, 498, 497, 495, 493, 495, 493, 492, 493, 495, 497, 492, 496, 477, 493, 496, 494, 500, 497, 495, 494, 495, 493, 495, 491, 496, 494, 492, 493, 495, 496, 495, 494, 492, 496, 494, 500, 497, 496, 492, 492, 494, 493, 492, 496, 494, 485, 493, 497, 493, 497, 492, 498, 497, 494, 494, 494, 496, 494, 502, 494, 499, 495, 488, 501, 494, 496, 492, 500, 497, 493, 493, 491, 491, 492, 493, 494, 479, 493, 490, 501, 494, 496, 496, 494, 495, 494, 494, 493, 490, 491, 496, 493, 482, 500, 493, 495, 495, 494, 495, 496, 495, 495, 496, 492, 489, 498, 498, 494, 495, 497, 496, 494, 492, 490, 493, 494, 494, 495, 494, 495, 494, 495, 495, 494, 495, 494, 494, 495, 494, 490, 500, 501, 495, 495, 495, 495, 495, 494, 495, 495, 495, 494, 495, 495, 494, 496, 495, 495, 495, 495, 495, 495, 496, 495, 495, 495, 491, 495, 496, 492, 498, 496, 496, 496, 495, 495, 495, 496, 496, 496, 496, 496, 496, 495, 495, 496, 495, 495, 495, 495, 496, 495, 495, 495, 495, 495, 493, 497, 495, 494, 495, 495, 494, 496, 497, 495, 495, 496, 496, 496, 496, 495, 494, 495, 496, 496, 496, 495, 492, 503, 495, 495, 493, 499, 495, 494, 496, 495, 496, 495, 495, 495, 496, 495, 495, 496, 495, 496, 495, 496, 495, 495, 495, 495, 494, 495, 496, 495, 496, 495, 494, 495, 495, 496, 496, 495, 496, 495, 495, 497, 496, 495, 495, 495, 495, 495, 495, 495, 495, 495, 495, 494, 495, 494, 487, 496, 497, 494, 498, 496, 495, 495, 496, 494, 496, 495, 494, 495, 496, 495, 496, 496, 495, 496, 495, 495, 494, 494, 495, 495, 496, 495, 495, 495, 494, 496, 495, 495, 495, 494, 495, 498, 496, 496, 494, 496, 496, 494, 496, 496, 496, 494, 497, 496, 495, 495, 495, 494, 495, 495, 495, 496, 496, 496, 495, 495, 495, 494, 495, 495, 495, 495, 496, 494, 495, 495, 495, 495, 497, 495, 495, 495, 495, 495, 495, 496, 496, 495, 494, 495, 495, 497, 495, 495, 495, 495, 495, 495, 495, 495, 495, 495, 495, 495, 495, 496, 495, 496, 496, 496, 495, 496, 495, 495, 495, 495, 495, 494, 496, 495, 495, 494, 496, 496, 495, 495, 495, 495, 494, 495, 495, 496, 495, 495, 493, 495, 496, 495, 495, 495, 494, 494, 496, 499, 495, 495, 495, 495, 495, 495, 495, 495, 495, 495, 494, 496, 495, 495, 492, 496, 496, 495, 495, 495, 496, 495, 495, 495, 495, 495, 496, 495, 495, 495, 495, 495, 495, 495, 496, 492, 496, 495, 494, 496, 495, 495, 495, 495, 495, 495, 495, 495, 495, 495, 495, 495, 495, 495, 494, 495, 496, 491, 499, 495, 495, 494, 496, 495, 495, 495, 495, 496, 495, 495, 495, 495, 495, 494, 496, 495, 495, 495, 495, 494, 494, 498, 495, 496, 495, 495, 495, 495, 495, 495, 495, 495, 495, 495, 495, 495, 496, 495, 494, 495, 495, 496, 494, 494, 497, 495, 495, 497, 496, 494, 494, 496, 495, 495, 495, 494, 495, 494, 495, 495, 495, 498, 494, 494, 494, 494, 494, 497, 495, 495, 494, 495, 495, 494, 494, 496, 495, 495, 495, 494, 495, 495, 493, 494, 495, 493, 496, 495, 495, 496, 495, 495, 495, 495, 494, 496, 496, 494, 495, 494, 495, 495]"
17,right,"[495, 495, 494, 495, 493, 494, 495, 492, 498, 494, 498, 495, 494, 494, 495, 494, 495, 494, 495, 495, 494, 494, 495, 494, 492, 495, 494, 490, 498, 498, 495, 495, 494, 495, 494, 494, 495, 495, 494, 495, 495, 495, 495, 495, 494, 495, 491, 496, 495, 493, 497, 495, 495, 495, 495, 494, 495, 495, 495, 495, 495, 495, 494, 496, 496, 494, 495, 495, 495, 494, 495, 495, 493, 494, 495, 495, 495, 494, 494, 495, 495, 495, 495, 495, 494, 496, 494, 495, 495, 495, 495, 495, 495, 495, 494, 493, 495, 496, 494, 494, 495, 495, 498, 494, 496, 495, 495, 495, 494, 495, 495, 495, 496, 495, 495, 494, 494, 494, 497, 494, 496, 494, 497, 494, 494, 495, 495, 495, 495, 494, 495, 494, 494, 495, 495, 493, 494, 494, 493, 496, 494, 501, 494, 487, 498, 496, 494, 495, 494, 496, 493, 498, 494, 496, 494, 494, 493, 487, 502, 496, 496, 493, 495, 495, 494, 494, 495, 493, 495, 494, 494, 491, 500, 494, 495, 495, 496, 493, 492, 497, 494, 495, 496, 497, 495, 497, 495, 494, 493, 493, 492, 497, 496, 496, 480, 503, 499, 494, 491, 496, 493, 499, 489, 486, 489, 494, 491, 496, 497, 489, 502, 492, 485, 500, 494, 493, 494, 496, 494, 493, 493, 490, 498, 485, 500, 486, 496, 501, 495, 494, 490, 503, 493, 494, 495, 486, 494, 492, 491, 497, 494, 505, 483, 500, 493, 494, 496, 497, 494, 495, 496, 494, 495, 495, 493, 492, 496, 495, 498, 491, 494, 493, 487, 493, 493, 498, 494, 495, 498, 495, 492, 496, 492, 499, 492, 486, 483, 498, 494, 497, 487, 496, 494, 496, 495, 495, 497, 495, 497, 491, 493, 489, 493, 493, 495, 496, 493, 497, 490, 493, 498, 493, 490, 494, 494, 491, 494, 491, 495, 496, 489, 492, 493, 499, 494, 500, 494, 493, 495, 495, 497, 494, 494, 491, 504, 495, 495, 492, 491, 491, 493, 493, 497, 494, 495, 498, 497, 498, 494, 496, 494, 488, 492, 495, 495, 493, 508, 496, 490, 496, 493, 496, 496, 496, 495, 496, 494, 496, 495, 495, 496, 496, 494, 495, 494, 492, 494, 498, 493, 492, 491, 497, 496, 497, 499, 493, 494, 496, 497, 495, 498, 496, 493, 493, 496, 492, 496, 493, 494, 498, 492, 496, 494, 491, 490, 494, 494, 495, 494, 496, 493, 493, 497, 483, 495, 495, 493, 494, 503, 493, 496, 497, 494, 500, 494, 492, 495, 496, 498, 495, 492, 493, 495, 497, 494, 507, 490, 493, 494, 495, 496, 498, 494, 495, 494, 492, 494, 496, 491, 497, 488, 496, 492, 494, 495, 492, 499, 498, 494, 498, 500, 486, 492, 495, 495, 495, 495, 495, 495, 493, 496, 498, 493, 492, 491, 494, 492, 489, 497, 494, 476, 501, 494, 498, 497, 496, 495, 495, 495, 494, 491, 488, 490, 501, 492, 509, 494, 499, 496, 494, 498, 495, 493, 494, 494, 494, 502, 495, 493, 488, 493, 490, 498, 497, 495, 499, 496, 495, 497, 495, 493, 489, 496, 490, 490, 497, 496, 497, 494, 493, 495, 491, 496, 493, 491, 501, 501, 497, 497, 492, 493, 498, 494, 494, 498, 479, 499, 493, 483, 493, 496, 496, 493, 494, 486, 502, 491, 500, 496, 494, 497, 494, 500, 492, 495, 485, 494, 495, 493, 497, 494, 491, 497, 496, 494, 496, 495, 497, 494, 494, 492, 498, 490, 487, 498, 494, 494]"
18,rest,"[494, 494, 494, 496, 491, 496, 497, 492, 506, 495, 494, 492, 501, 495, 494, 496, 480, 504, 496, 497, 495, 495, 498, 493, 496, 491, 493, 495, 501, 491, 491, 485, 498, 488, 496, 497, 470, 494, 496, 494, 493, 494, 495, 496, 493, 494, 491, 498, 510, 497, 491, 493, 503, 494, 498, 494, 493, 494, 498, 493, 473, 496, 492, 483, 496, 494, 494, 497, 494, 495, 493, 494, 489, 496, 499, 494, 496, 490, 504, 483, 486, 494, 494, 493, 493, 493, 489, 506, 494, 495, 489, 504, 492, 493, 477, 502, 496, 495, 495, 494, 492, 483, 495, 494, 492, 495, 496, 492, 497, 495, 494, 496, 494, 494, 494, 494, 494, 494, 495, 494, 494, 494, 494, 494, 494, 494, 495, 495, 494, 494, 494, 496, 495, 494, 495, 494, 495, 494, 495, 495, 495, 495, 495, 495, 495, 495, 496, 495, 495, 496, 495, 495, 489, 494, 496, 496, 496, 496, 496, 495, 496, 496, 495, 495, 496, 495, 495, 495, 496, 495, 496, 495, 496, 496, 496, 496, 495, 496, 495, 496, 495, 496, 494, 495, 495, 497, 496, 496, 496, 495, 495, 496, 495, 495, 495, 495, 495, 496, 496, 495, 495, 495, 493, 497, 495, 495, 495, 495, 495, 495, 495, 495, 495, 497, 495, 495, 495, 495, 496, 496, 495, 495, 494, 496, 494, 496, 496, 495, 495, 495, 495, 495, 495, 495, 496, 495, 494, 495, 498, 496, 496, 496, 496, 495, 495, 495, 495, 496, 495, 495, 495, 495, 495, 495, 496, 494, 496, 495, 495, 495, 495, 496, 495, 495, 495, 495, 495, 496, 496, 495, 495, 496, 495, 495, 494, 496, 495, 495, 496, 494, 496, 495, 496, 495, 494, 495, 495, 495, 495, 496, 495, 495, 495, 496, 495, 496, 495, 495, 496, 494, 497, 495, 495, 496, 496, 495, 495, 495, 496, 495, 495, 495, 495, 495, 495, 495, 495, 495, 495, 496, 495, 495, 494, 496, 495, 495, 496, 494, 497, 495, 496, 492, 497, 497, 496, 495, 495, 495, 496, 496, 495, 495, 495, 495, 495, 495, 495, 495, 496, 495, 495, 494, 496, 495, 495, 496, 495, 495, 495, 495, 495, 495, 495, 495, 495, 496, 496, 496, 495, 496, 495, 495, 495, 495, 495, 495, 495, 495, 495, 494, 495, 495, 495, 495, 495, 495, 492, 493, 499, 497, 496, 495, 495, 495, 495, 495, 496, 496, 495, 494, 496, 495, 495, 495, 495, 495, 495, 496, 494, 496, 495, 496, 495, 495, 495, 495, 495, 495, 496, 495, 495, 495, 496, 495, 495, 495, 495, 495, 495, 495, 492, 497, 495, 496, 495, 495, 495, 496, 495, 496, 495, 495, 495, 495, 495, 495, 495, 495, 495, 495, 495, 494, 495, 495, 495, 495, 495, 494, 495, 495, 496, 495, 495, 496, 495, 495, 496, 495, 496, 495, 495, 495, 495, 495, 495, 495, 495, 495, 495, 494, 494, 495, 495, 494, 494, 496, 495, 495, 495, 495, 495, 495, 495, 494, 494, 495, 495, 495, 496, 495, 494, 494, 496, 496, 495, 495, 495, 495, 494, 495, 495, 495, 495, 495, 496, 495, 495, 495, 495, 495, 495, 495, 495, 495, 495, 495, 493, 497, 495, 495, 494, 495, 495, 496, 495, 495, 496, 495, 495, 495, 496, 494, 495, 495, 495, 495, 495, 495, 495, 495, 495, 495, 494, 495, 495, 495, 495, 495, 495, 493, 495, 495, 495, 495, 496, 495, 495, 495, 495, 495, 494, 495, 495, 495, 495, 496, 494]"
19,right,"[495, 495, 494, 495, 495, 495, 495, 495, 495, 495, 495, 495, 495, 494, 496, 495, 495, 495, 495, 495, 494, 495, 493, 495, 495, 495, 495, 494, 495, 495, 494, 495, 495, 494, 494, 495, 495, 494, 495, 494, 496, 495, 494, 495, 495, 495, 495, 495, 494, 494, 495, 495, 495, 495, 495, 496, 495, 494, 494, 495, 495, 495, 496, 496, 495, 494, 496, 494, 495, 494, 495, 495, 494, 494, 495, 496, 494, 495, 497, 495, 495, 493, 495, 495, 496, 493, 495, 493, 498, 494, 495, 494, 488, 495, 499, 491, 496, 494, 495, 497, 495, 494, 494, 495, 495, 489, 493, 496, 493, 500, 492, 496, 492, 497, 499, 494, 495, 493, 496, 495, 497, 495, 493, 494, 495, 497, 494, 493, 495, 496, 495, 493, 497, 500, 492, 489, 493, 498, 494, 495, 493, 496, 490, 494, 501, 512, 490, 495, 491, 507, 484, 509, 495, 501, 495, 493, 501, 483, 492, 504, 504, 488, 479, 492, 491, 487, 495, 506, 497, 488, 481, 500, 494, 497, 490, 490, 506, 495, 488, 498, 493, 489, 493, 498, 491, 492, 494, 502, 488, 496, 490, 494, 490, 507, 495, 495, 495, 496, 492, 496, 488, 502, 487, 496, 497, 497, 494, 483, 507, 478, 493, 493, 493, 498, 493, 492, 489, 496, 497, 493, 511, 487, 494, 500, 493, 496, 498, 499, 492, 495, 496, 493, 493, 495, 493, 490, 496, 494, 492, 492, 494, 510, 497, 497, 493, 500, 496, 494, 494, 494, 493, 493, 491, 491, 494, 493, 494, 494, 497, 492, 494, 493, 490, 492, 494, 498, 493, 496, 509, 497, 495, 495, 494, 495, 498, 490, 491, 495, 502, 495, 494, 494, 493, 492, 491, 495, 493, 493, 502, 494, 492, 511, 495, 494, 496, 492, 493, 496, 493, 493, 495, 499, 491, 492, 494, 494, 494, 511, 492, 492, 492, 495, 507, 501, 484, 486, 496, 490, 501, 493, 492, 493, 497, 493, 492, 494, 497, 494, 495, 492, 494, 498, 490, 494, 498, 488, 496, 493, 495, 494, 499, 494, 489, 500, 492, 496, 492, 498, 495, 493, 498, 493, 495, 500, 492, 494, 494, 497, 496, 495, 493, 488, 498, 490, 506, 488, 493, 493, 495, 494, 493, 494, 494, 497, 496, 496, 475, 512, 492, 490, 496, 491, 494, 499, 497, 505, 494, 500, 481, 504, 488, 496, 496, 493, 491, 493, 505, 488, 496, 493, 495, 482, 493, 493, 494, 494, 498, 490, 498, 498, 496, 491, 490, 496, 493, 493, 493, 501, 485, 504, 492, 501, 505, 488, 494, 498, 499, 492, 494, 491, 501, 493, 496, 498, 496, 494, 494, 499, 495, 494, 493, 491, 496, 495, 495, 499, 495, 491, 485, 495, 497, 498, 493, 493, 494, 494, 498, 491, 495, 494, 491, 502, 500, 491, 500, 487, 493, 495, 496, 492, 494, 494, 494, 497, 505, 499, 501, 488, 490, 495, 491, 494, 496, 489, 495, 494, 499, 501, 491, 488, 492, 492, 496, 500, 493, 494, 493, 501, 490, 493, 501, 490, 492, 494, 498, 493, 494, 490, 495, 494, 496, 498, 508, 493, 495, 500, 492, 495, 493, 493, 499, 495, 494, 495, 497, 486, 493, 502, 493, 492, 493, 495, 493, 497, 494, 495, 493, 498, 493, 493, 497, 485, 494, 489, 493, 499, 494, 495, 494, 492, 494, 497, 499, 492, 493, 490, 492, 492, 494, 495, 493, 496, 494, 490, 500, 492, 493, 498, 493, 499, 495, 493, 495, 494, 497, 495]"
20,rest,"[501, 490, 493, 492, 495, 494, 495, 490, 494, 500, 496, 495, 491, 492, 494, 500, 494, 497, 489, 492, 493, 496, 493, 492, 494, 498, 494, 497, 486, 494, 494, 494, 494, 491, 496, 489, 497, 495, 494, 496, 496, 498, 494, 495, 493, 494, 503, 493, 493, 496, 495, 492, 493, 495, 494, 493, 497, 494, 496, 494, 494, 496, 494, 497, 496, 495, 497, 496, 491, 494, 494, 494, 493, 497, 496, 496, 491, 493, 496, 500, 495, 496, 494, 494, 494, 494, 494, 495, 486, 494, 496, 495, 490, 495, 495, 495, 496, 493, 494, 498, 494, 496, 497, 496, 494, 496, 493, 497, 497, 495, 495, 495, 498, 497, 494, 494, 496, 495, 494, 496, 492, 494, 499, 495, 493, 495, 495, 492, 495, 494, 495, 494, 494, 495, 494, 494, 494, 495, 494, 494, 494, 494, 494, 494, 494, 494, 494, 495, 494, 494, 495, 495, 494, 494, 495, 494, 495, 495, 495, 495, 495, 496, 495, 494, 495, 495, 495, 495, 495, 495, 495, 495, 495, 495, 495, 496, 495, 495, 495, 495, 495, 495, 496, 496, 495, 496, 495, 495, 495, 496, 496, 495, 495, 496, 496, 494, 496, 492, 497, 495, 498, 496, 496, 496, 495, 495, 495, 495, 495, 495, 495, 495, 495, 495, 495, 495, 496, 495, 495, 495, 495, 494, 495, 495, 495, 495, 495, 495, 495, 495, 495, 496, 495, 495, 495, 495, 495, 495, 495, 495, 495, 495, 496, 495, 495, 495, 495, 494, 496, 495, 495, 495, 495, 496, 495, 495, 495, 495, 495, 495, 495, 495, 495, 495, 495, 495, 495, 495, 495, 495, 495, 495, 495, 495, 495, 495, 495, 494, 495, 495, 495, 494, 494, 495, 495, 495, 495, 495, 495, 495, 496, 495, 495, 495, 495, 495, 495, 495, 495, 495, 495, 495, 494, 495, 496, 495, 495, 495, 495, 495, 495, 495, 495, 495, 494, 495, 495, 494, 495, 495, 494, 495, 495, 495, 494, 496, 495, 495, 495, 495, 495, 495, 496, 494, 495, 495, 495, 495, 495, 495, 495, 495, 495, 495, 495, 495, 495, 494, 495, 495, 494, 496, 494, 495, 495, 494, 496, 495, 495, 495, 495, 495, 495, 495, 495, 495, 494, 495, 495, 495, 495, 495, 495, 495, 495, 495, 495, 495, 495, 495, 495, 495, 495, 495, 495, 495, 495, 494, 495, 495, 495, 495, 495, 494, 495, 495, 495, 495, 495, 495, 495, 495, 495, 495, 495, 495, 495, 495, 495, 495, 494, 495, 496, 494, 495, 495, 495, 496, 494, 495, 495, 495, 495, 495, 495, 495, 495, 495, 495, 494, 495, 495, 494, 495, 495, 495, 495, 495, 495, 494, 495, 495, 495, 495, 495, 495, 494, 496, 495, 495, 495, 495, 496, 494, 496, 494, 495, 494, 495, 495, 494, 495, 494, 495, 495, 495, 495, 494, 496, 494, 495, 495, 495, 495, 495, 495, 495, 494, 496, 495, 494, 496, 495, 495, 494, 495, 495, 495, 495, 495, 494, 494, 495, 495, 495, 495, 495, 495, 495, 495, 495, 495, 494, 495, 496, 494, 495, 495, 495, 495, 495, 496, 494, 495, 494, 494, 494, 495, 495, 495, 495, 495, 495, 495, 495, 495, 495, 495, 494, 495, 494, 495, 495, 495, 495, 494, 495, 495, 495, 495, 495, 495, 495, 495, 495, 494, 495, 495, 495, 495, 495, 495, 495, 495, 495, 495, 494, 495, 495, 495, 495, 494, 496, 495, 494, 495, 495, 495, 495, 495, 495, 495, 495, 494, 495, 495, 496]"
21,right,"[495, 495, 495, 494, 495, 494, 495, 495, 495, 494, 495, 494, 494, 496, 494, 495, 495, 495, 495, 494, 495, 495, 495, 494, 495, 494, 495, 496, 494, 495, 495, 494, 494, 494, 496, 495, 494, 495, 494, 494, 494, 495, 494, 494, 494, 495, 495, 494, 495, 494, 495, 495, 494, 495, 494, 495, 495, 494, 495, 495, 494, 495, 495, 496, 494, 494, 495, 495, 495, 495, 495, 495, 495, 495, 495, 495, 495, 495, 495, 495, 495, 495, 493, 496, 495, 495, 495, 494, 495, 495, 495, 494, 495, 495, 495, 495, 495, 495, 495, 495, 495, 494, 494, 495, 495, 495, 494, 495, 494, 495, 495, 495, 495, 495, 498, 497, 494, 494, 495, 495, 495, 495, 494, 495, 494, 495, 494, 494, 495, 498, 494, 494, 495, 495, 494, 494, 497, 493, 483, 488, 510, 491, 476, 493, 502, 493, 497, 488, 502, 495, 486, 496, 482, 501, 495, 495, 500, 495, 494, 494, 487, 488, 500, 491, 493, 487, 507, 494, 497, 494, 493, 501, 492, 494, 493, 490, 495, 495, 486, 502, 495, 488, 492, 495, 494, 496, 487, 499, 495, 489, 507, 493, 497, 491, 492, 482, 500, 491, 494, 491, 486, 493, 491, 493, 496, 494, 494, 496, 493, 496, 498, 490, 493, 493, 494, 490, 492, 495, 494, 490, 494, 500, 493, 493, 497, 497, 497, 492, 497, 496, 494, 494, 486, 499, 494, 497, 480, 494, 496, 495, 495, 495, 493, 495, 489, 484, 501, 495, 495, 504, 502, 499, 494, 495, 496, 495, 495, 500, 493, 487, 493, 492, 514, 494, 497, 490, 497, 494, 499, 501, 494, 495, 499, 504, 497, 503, 492, 493, 502, 498, 495, 493, 486, 493, 498, 493, 493, 495, 497, 492, 500, 495, 494, 492, 489, 502, 494, 507, 496, 494, 496, 490, 487, 497, 485, 483, 497, 494, 502, 498, 496, 494, 494, 494, 493, 499, 497, 481, 502, 497, 494, 493, 493, 488, 495, 493, 487, 499, 494, 500, 497, 496, 496, 497, 496, 482, 482, 497, 491, 497, 499, 493, 508, 494, 495, 494, 487, 497, 493, 495, 496, 494, 498, 489, 493, 503, 492, 499, 498, 492, 494, 499, 493, 496, 494, 496, 490, 496, 491, 495, 496, 492, 494, 500, 496, 500, 492, 498, 492, 495, 493, 494, 493, 494, 492, 485, 507, 488, 485, 498, 497, 494, 494, 495, 494, 498, 495, 494, 486, 492, 497, 493, 500, 493, 499, 495, 499, 496, 494, 492, 496, 495, 495, 491, 498, 493, 496, 496, 497, 492, 499, 501, 498, 496, 493, 493, 493, 499, 494, 492, 494, 494, 496, 493, 494, 494, 492, 497, 497, 496, 496, 496, 489, 500, 492, 491, 499, 495, 492, 495, 497, 490, 497, 493, 489, 497, 485, 489, 496, 491, 493, 499, 496, 496, 492, 499, 496, 491, 498, 494, 489, 494, 495, 494, 496, 494, 491, 493, 496, 494, 491, 495, 494, 496, 494, 494, 494, 500, 495, 482, 500, 492, 497, 500, 492, 496, 493, 495, 495, 493, 495, 494, 496, 492, 497, 493, 493, 486, 494, 495, 497, 498, 494, 496, 495, 499, 494, 488, 495, 496, 493, 494, 496, 494, 494, 496, 496, 498, 497, 497, 501, 497, 498, 496, 492, 492, 497, 501, 498, 498, 491, 491, 496, 496, 486, 491, 497, 493, 501, 493, 497, 497, 494, 492, 496, 494, 493, 496, 486, 492, 491, 496, 498, 494, 498, 493, 490, 495, 500, 498, 494, 496, 498, 494, 494, 497, 494]"
22,rest,"[496, 493, 484, 496, 491, 502, 498, 498, 496, 495, 494, 496, 493, 494, 492, 496, 490, 499, 493, 496, 490, 496, 499, 500, 495, 492, 497, 495, 496, 495, 498, 494, 493, 493, 494, 498, 494, 493, 492, 495, 501, 493, 500, 496, 499, 491, 492, 491, 496, 496, 494, 494, 493, 495, 496, 473, 496, 495, 500, 492, 498, 492, 493, 496, 495, 496, 495, 499, 495, 495, 494, 495, 498, 492, 500, 495, 490, 497, 496, 494, 490, 493, 491, 496, 494, 495, 495, 496, 496, 495, 495, 496, 496, 494, 499, 501, 496, 496, 494, 493, 495, 496, 491, 490, 499, 495, 496, 493, 495, 496, 489, 496, 497, 497, 494, 497, 496, 496, 498, 494, 496, 494, 495, 495, 494, 494, 494, 495, 494, 494, 494, 494, 494, 494, 495, 494, 494, 495, 495, 494, 495, 495, 495, 495, 496, 495, 495, 496, 495, 495, 495, 495, 495, 496, 495, 495, 495, 496, 496, 495, 496, 495, 495, 495, 496, 496, 495, 495, 495, 495, 495, 495, 496, 496, 495, 495, 495, 496, 496, 496, 495, 495, 495, 495, 496, 495, 496, 495, 496, 495, 496, 496, 495, 495, 495, 495, 496, 495, 495, 495, 495, 495, 495, 496, 496, 496, 496, 496, 496, 495, 496, 496, 495, 495, 495, 495, 496, 495, 495, 495, 495, 495, 495, 495, 496, 495, 495, 496, 496, 495, 496, 496, 496, 495, 496, 496, 495, 496, 496, 495, 495, 495, 495, 495, 495, 495, 495, 495, 495, 495, 495, 495, 496, 496, 495, 495, 496, 495, 495, 496, 496, 495, 495, 495, 496, 495, 496, 495, 495, 496, 495, 496, 495, 496, 495, 495, 495, 495, 495, 495, 496, 495, 496, 495, 495, 495, 496, 496, 495, 496, 495, 495, 495, 495, 495, 495, 495, 495, 496, 495, 495, 496, 495, 495, 496, 495, 495, 495, 496, 495, 495, 495, 496, 495, 495, 496, 495, 495, 495, 496, 495, 495, 495, 495, 495, 496, 496, 495, 495, 495, 495, 495, 495, 495, 495, 495, 495, 496, 495, 496, 495, 495, 495, 495, 495, 496, 496, 495, 495, 495, 495, 495, 496, 496, 495, 495, 496, 495, 494, 495, 496, 495, 495, 495, 496, 495, 495, 496, 495, 495, 495, 495, 495, 495, 495, 495, 494, 495, 495, 495, 495, 495, 495, 495, 495, 496, 495, 495, 496, 496, 495, 495, 495, 495, 495, 496, 495, 495, 495, 495, 495, 494, 495, 495, 495, 495, 495, 495, 495, 496, 495, 495, 495, 495, 495, 495, 496, 495, 495, 495, 496, 495, 495, 495, 494, 495, 496, 495, 495, 496, 495, 494, 495, 496, 495, 495, 495, 495, 495, 495, 495, 496, 495, 494, 496, 495, 495, 495, 495, 495, 495, 495, 495, 495, 495, 495, 495, 495, 496, 495, 495, 495, 495, 495, 495, 495, 495, 495, 494, 495, 495, 495, 495, 495, 495, 495, 494, 495, 495, 495, 495, 495, 495, 495, 495, 494, 495, 495, 495, 495, 495, 495, 495, 495, 495, 495, 495, 495, 495, 495, 495, 495, 495, 495, 494, 495, 495, 495, 494, 495, 495, 495, 494, 495, 495, 495, 495, 496, 495, 495, 495, 495, 495, 495, 495, 495, 495, 494, 494, 495, 495, 495, 494, 495, 495, 495, 495, 495, 495, 494, 495, 495, 494, 494, 495, 495, 495, 495, 495, 494, 495, 495, 495, 494, 494, 495, 494, 495, 494, 494, 494, 494, 495, 494, 495, 494, 495, 495, 495, 495, 496, 495, 495, 495, 494, 495, 494]"
23,right,"[494, 494, 495, 495, 494, 495, 495, 495, 494, 494, 496, 495, 494, 495, 495, 494, 495, 495, 495, 494, 495, 494, 495, 494, 495, 495, 495, 495, 494, 495, 494, 494, 494, 494, 495, 495, 494, 494, 495, 494, 495, 495, 494, 495, 495, 495, 494, 494, 494, 494, 494, 494, 494, 494, 494, 495, 494, 495, 494, 494, 494, 494, 495, 494, 494, 495, 494, 494, 494, 495, 495, 494, 494, 495, 494, 494, 496, 496, 495, 494, 494, 495, 494, 495, 495, 494, 495, 494, 495, 495, 495, 494, 495, 495, 495, 494, 495, 495, 495, 495, 495, 495, 494, 494, 496, 494, 494, 495, 495, 494, 494, 495, 494, 494, 495, 494, 494, 495, 496, 494, 494, 494, 495, 494, 495, 494, 494, 494, 495, 495, 493, 496, 496, 494, 495, 495, 494, 495, 494, 496, 495, 494, 496, 490, 492, 482, 514, 488, 493, 487, 501, 492, 496, 497, 491, 495, 490, 491, 492, 486, 500, 484, 500, 500, 490, 495, 492, 491, 487, 505, 493, 495, 457, 500, 491, 493, 493, 494, 495, 494, 484, 488, 494, 490, 481, 497, 499, 494, 488, 493, 495, 494, 490, 498, 498, 492, 483, 502, 497, 493, 493, 494, 494, 493, 492, 497, 491, 493, 484, 492, 484, 500, 486, 495, 498, 490, 494, 489, 484, 494, 493, 505, 492, 500, 491, 495, 492, 495, 493, 497, 485, 517, 491, 492, 505, 486, 493, 491, 499, 491, 494, 484, 496, 499, 499, 495, 489, 496, 494, 493, 493, 498, 503, 494, 474, 494, 494, 491, 470, 499, 500, 494, 495, 500, 494, 504, 494, 498, 491, 496, 494, 498, 494, 498, 492, 514, 501, 497, 487, 497, 492, 495, 492, 488, 489, 492, 499, 494, 497, 498, 490, 498, 491, 491, 495, 495, 498, 493, 488, 494, 500, 500, 494, 496, 493, 495, 495, 495, 495, 487, 509, 495, 500, 482, 493, 498, 495, 496, 493, 494, 490, 496, 493, 497, 495, 494, 496, 496, 494, 493, 493, 496, 492, 493, 495, 496, 492, 496, 495, 495, 493, 495, 492, 511, 498, 497, 488, 493, 496, 495, 495, 493, 497, 493, 499, 494, 503, 496, 489, 495, 494, 495, 494, 496, 494, 495, 495, 496, 494, 501, 496, 487, 487, 496, 486, 504, 496, 492, 493, 504, 495, 498, 495, 496, 492, 496, 497, 488, 498, 484, 494, 492, 493, 496, 498, 492, 496, 497, 499, 495, 494, 496, 497, 483, 500, 488, 491, 497, 495, 496, 492, 495, 499, 494, 495, 494, 486, 509, 495, 503, 504, 493, 494, 494, 494, 494, 486, 494, 496, 496, 494, 495, 489, 491, 495, 491, 499, 494, 494, 496, 495, 495, 494, 495, 494, 501, 490, 486, 498, 493, 483, 497, 497, 495, 494, 495, 492, 496, 495, 493, 498, 493, 487, 499, 497, 498, 491, 495, 484, 505, 482, 501, 497, 493, 497, 494, 497, 497, 496, 494, 495, 495, 496, 502, 487, 494, 498, 496, 495, 495, 495, 491, 492, 495, 494, 490, 500, 499, 492, 503, 494, 499, 494, 496, 495, 494, 490, 498, 496, 498, 498, 500, 495, 496, 497, 493, 496, 494, 493, 495, 480, 497, 497, 495, 494, 499, 496, 494, 491, 499, 495, 496, 494, 495, 495, 482, 509, 493, 491, 498, 498, 493, 495, 495, 494, 495, 495, 494, 494, 494, 493, 496, 492, 496, 491, 497, 502, 491, 495, 494, 498, 494, 495, 495, 496, 501, 494, 494, 492, 494, 487, 499, 499, 494, 494, 499, 491]"
24,rest,"[495, 495, 495, 497, 493, 488, 498, 493, 484, 497, 494, 497, 498, 493, 494, 498, 495, 494, 494, 505, 495, 487, 495, 492, 497, 495, 495, 495, 489, 498, 493, 500, 495, 492, 492, 491, 496, 490, 505, 494, 497, 499, 494, 497, 490, 491, 495, 494, 495, 493, 495, 494, 497, 496, 493, 495, 497, 493, 496, 497, 497, 497, 498, 496, 494, 486, 502, 497, 492, 494, 497, 495, 493, 500, 487, 495, 494, 499, 493, 485, 479, 498, 493, 491, 495, 495, 498, 494, 495, 496, 494, 494, 493, 481, 497, 494, 493, 501, 495, 497, 494, 491, 488, 497, 492, 497, 495, 498, 498, 495, 495, 495, 495, 497, 494, 494, 496, 493, 485, 494, 495, 495, 494, 495, 495, 494, 495, 495, 494, 495, 494, 495, 495, 494, 494, 496, 494, 496, 496, 495, 495, 496, 495, 495, 495, 495, 495, 495, 495, 495, 495, 496, 495, 496, 495, 496, 496, 495, 496, 496, 495, 496, 496, 496, 496, 496, 496, 496, 496, 497, 496, 497, 495, 496, 496, 496, 495, 497, 496, 496, 494, 494, 495, 497, 498, 495, 496, 495, 496, 496, 495, 495, 495, 496, 495, 495, 495, 496, 496, 496, 496, 496, 495, 496, 496, 495, 496, 496, 495, 495, 493, 494, 498, 498, 496, 496, 496, 496, 496, 495, 495, 496, 495, 495, 495, 495, 496, 495, 495, 495, 496, 495, 495, 495, 495, 495, 495, 495, 495, 495, 495, 496, 496, 495, 495, 495, 496, 495, 495, 496, 495, 494, 497, 496, 494, 496, 497, 495, 495, 495, 495, 495, 495, 495, 495, 495, 495, 496, 495, 495, 495, 495, 495, 496, 496, 495, 494, 495, 497, 495, 496, 495, 495, 495, 498, 495, 495, 496, 495, 495, 495, 495, 495, 495, 497, 495, 496, 495, 495, 495, 496, 494, 495, 495, 496, 495, 495, 496, 492, 496, 495, 496, 495, 495, 495, 496, 494, 495, 495, 495, 495, 495, 495, 495, 495, 495, 495, 495, 495, 495, 495, 495, 495, 496, 495, 493, 495, 496, 494, 497, 495, 496, 495, 495, 495, 495, 495, 495, 495, 495, 495, 495, 495, 495, 495, 496, 494, 496, 495, 495, 495, 495, 495, 495, 496, 495, 495, 495, 492, 496, 497, 496, 495, 495, 495, 495, 495, 495, 495, 495, 495, 496, 495, 495, 495, 494, 495, 496, 495, 495, 495, 495, 495, 495, 495, 496, 496, 495, 495, 494, 495, 494, 496, 496, 495, 494, 496, 495, 495, 495, 495, 495, 496, 496, 495, 495, 496, 495, 495, 495, 495, 494, 495, 496, 495, 494, 496, 495, 495, 495, 495, 494, 495, 495, 495, 495, 495, 496, 495, 495, 496, 495, 495, 495, 496, 494, 494, 495, 495, 495, 495, 496, 494, 495, 495, 495, 495, 494, 495, 493, 497, 495, 495, 495, 495, 495, 495, 495, 495, 496, 494, 494, 496, 495, 495, 495, 494, 495, 495, 496, 494, 495, 495, 495, 495, 495, 495, 496, 495, 495, 495, 495, 492, 497, 495, 494, 496, 495, 495, 495, 495, 495, 494, 495, 494, 495, 495, 495, 495, 494, 496, 495, 494, 495, 495, 494, 496, 494, 495, 495, 495, 495, 495, 494, 495, 495, 495, 495, 495, 494, 495, 496, 495, 495, 496, 495, 495, 493, 496, 495, 495, 495, 495, 495, 495, 496, 495, 494, 495, 495, 495, 495, 495, 496, 495, 495, 495, 495, 495, 496, 495, 495, 495, 495, 494, 494, 495, 495, 495, 495, 495, 495, 495, 495, 494, 495, 495]"
25,right,"[495, 495, 494, 495, 494, 494, 493, 496, 495, 495, 495, 495, 495, 494, 495, 495, 495, 495, 494, 494, 495, 495, 495, 494, 495, 495, 495, 495, 495, 495, 495, 495, 494, 496, 494, 495, 496, 495, 495, 495, 495, 495, 494, 495, 495, 494, 495, 495, 495, 494, 495, 495, 495, 495, 494, 495, 494, 495, 495, 496, 493, 495, 495, 495, 494, 494, 495, 495, 494, 495, 494, 495, 495, 494, 495, 495, 495, 495, 495, 496, 495, 495, 494, 495, 495, 495, 494, 495, 495, 495, 495, 495, 495, 495, 495, 496, 494, 496, 494, 494, 494, 496, 495, 495, 496, 495, 493, 497, 496, 495, 495, 496, 494, 495, 495, 495, 494, 495, 494, 495, 496, 494, 494, 495, 494, 496, 495, 495, 494, 496, 495, 494, 495, 492, 494, 495, 494, 495, 494, 495, 495, 494, 497, 494, 494, 495, 484, 497, 474, 508, 494, 493, 480, 504, 496, 498, 493, 495, 483, 480, 497, 495, 454, 522, 484, 504, 498, 493, 494, 489, 492, 498, 499, 494, 496, 495, 487, 497, 496, 473, 486, 483, 491, 482, 501, 496, 492, 494, 491, 494, 490, 499, 497, 493, 471, 479, 504, 504, 495, 494, 490, 495, 494, 491, 494, 492, 478, 479, 493, 497, 492, 489, 487, 499, 496, 495, 489, 503, 492, 495, 494, 489, 506, 496, 497, 495, 485, 482, 494, 493, 478, 508, 497, 502, 496, 488, 501, 491, 483, 494, 490, 485, 495, 499, 490, 493, 499, 491, 508, 494, 498, 491, 495, 497, 481, 501, 481, 500, 489, 491, 498, 501, 495, 501, 494, 495, 495, 494, 495, 494, 505, 494, 489, 496, 494, 495, 492, 495, 493, 495, 496, 494, 495, 494, 494, 496, 497, 497, 486, 477, 497, 497, 494, 492, 496, 497, 489, 499, 494, 494, 497, 494, 497, 495, 493, 497, 499, 494, 496, 494, 494, 483, 496, 488, 498, 496, 491, 488, 482, 499, 494, 491, 491, 492, 498, 496, 495, 497, 489, 496, 493, 496, 496, 493, 495, 483, 494, 506, 496, 492, 495, 492, 496, 496, 495, 496, 498, 491, 495, 483, 503, 500, 496, 492, 494, 497, 494, 501, 494, 494, 496, 496, 493, 494, 476, 484, 503, 500, 495, 497, 494, 495, 491, 491, 488, 495, 495, 495, 487, 496, 499, 496, 498, 495, 496, 488, 490, 499, 494, 491, 498, 495, 495, 495, 492, 493, 493, 498, 496, 491, 494, 496, 490, 496, 497, 496, 494, 493, 495, 495, 494, 496, 495, 495, 485, 489, 487, 479, 496, 495, 496, 498, 494, 494, 494, 495, 494, 494, 496, 486, 485, 496, 494, 501, 506, 493, 499, 497, 494, 495, 494, 495, 490, 493, 499, 482, 501, 494, 490, 498, 495, 498, 493, 496, 495, 495, 492, 497, 491, 495, 493, 496, 504, 496, 499, 492, 496, 501, 498, 495, 496, 494, 495, 496, 494, 490, 497, 494, 500, 496, 498, 498, 493, 496, 496, 497, 493, 494, 491, 490, 498, 497, 495, 494, 491, 497, 494, 495, 493, 496, 488, 495, 495, 493, 496, 498, 489, 496, 498, 493, 492, 496, 492, 489, 498, 489, 496, 494, 497, 494, 495, 493, 494, 494, 496, 496, 496, 488, 502, 476, 499, 500, 492, 489, 495, 492, 494, 494, 490, 496, 496, 494, 493, 495, 490, 495, 499, 496, 496, 496, 495, 495, 496, 497, 500, 494, 498, 495, 496, 496, 495, 495, 487, 490, 509, 497, 489, 496, 496, 494, 496, 495, 494, 495, 495, 499]"
26,rest,"[499, 488, 506, 497, 496, 496, 492, 494, 499, 493, 494, 496, 496, 494, 496, 494, 501, 498, 489, 483, 495, 493, 493, 499, 493, 495, 496, 495, 496, 494, 495, 494, 496, 496, 496, 490, 496, 496, 493, 486, 499, 497, 492, 495, 495, 495, 496, 495, 495, 494, 495, 495, 485, 503, 497, 497, 489, 493, 497, 497, 497, 494, 496, 495, 489, 497, 495, 494, 490, 495, 483, 501, 495, 497, 491, 491, 496, 498, 494, 501, 495, 493, 496, 496, 494, 500, 495, 494, 490, 491, 494, 496, 501, 498, 503, 496, 493, 497, 494, 493, 495, 488, 496, 495, 492, 497, 489, 498, 490, 495, 498, 496, 492, 499, 495, 495, 495, 494, 494, 494, 494, 495, 494, 494, 494, 494, 495, 495, 495, 494, 495, 495, 494, 495, 494, 495, 494, 494, 495, 494, 494, 495, 494, 495, 495, 496, 495, 495, 495, 495, 495, 495, 496, 496, 495, 496, 495, 495, 497, 496, 496, 496, 496, 496, 496, 495, 496, 495, 495, 495, 496, 496, 496, 496, 496, 496, 496, 496, 496, 496, 496, 489, 502, 496, 497, 496, 496, 497, 495, 496, 496, 495, 495, 495, 497, 495, 495, 496, 496, 496, 496, 496, 495, 496, 495, 496, 495, 495, 496, 495, 495, 495, 495, 496, 495, 496, 495, 496, 496, 496, 496, 495, 495, 495, 496, 496, 495, 496, 495, 496, 495, 493, 498, 494, 495, 496, 496, 495, 495, 495, 495, 495, 496, 495, 495, 495, 495, 495, 495, 495, 496, 495, 495, 496, 495, 495, 495, 495, 495, 495, 495, 496, 495, 495, 495, 495, 495, 495, 495, 494, 494, 496, 494, 495, 496, 495, 495, 495, 496, 495, 495, 496, 495, 495, 495, 496, 495, 495, 496, 495, 495, 495, 495, 496, 495, 495, 496, 496, 495, 495, 496, 495, 496, 494, 496, 495, 495, 495, 495, 495, 495, 495, 495, 495, 495, 495, 496, 494, 495, 495, 495, 495, 495, 495, 495, 491, 499, 495, 495, 495, 496, 495, 495, 494, 496, 495, 495, 495, 495, 495, 495, 495, 495, 495, 495, 495, 494, 496, 495, 495, 495, 495, 495, 495, 496, 494, 495, 495, 495, 495, 495, 495, 495, 495, 495, 495, 493, 496, 496, 495, 495, 495, 496, 495, 496, 495, 495, 495, 496, 495, 495, 494, 496, 495, 494, 495, 495, 494, 495, 495, 495, 495, 495, 495, 495, 494, 495, 494, 495, 495, 495, 495, 495, 495, 495, 495, 495, 495, 495, 494, 496, 495, 494, 494, 496, 495, 495, 495, 495, 495, 495, 495, 496, 495, 495, 494, 495, 494, 494, 495, 495, 496, 495, 495, 494, 495, 494, 495, 496, 493, 498, 495, 495, 495, 495, 496, 495, 495, 496, 495, 495, 495, 495, 495, 494, 495, 495, 495, 494, 496, 495, 495, 494, 495, 495, 495, 494, 494, 494, 495, 496, 495, 495, 491, 495, 495, 495, 495, 495, 494, 495, 495, 495, 495, 495, 495, 495, 495, 494, 494, 491, 497, 495, 495, 496, 495, 495, 495, 495, 495, 495, 495, 494, 495, 495, 495, 495, 495, 495, 496, 494, 494, 494, 495, 495, 495, 495, 494, 495, 495, 495, 494, 495, 495, 495, 495, 495, 495, 492, 497, 495, 495, 495, 495, 495, 494, 495, 495, 495, 495, 495, 495, 494, 495, 495, 495, 495, 494, 493, 495, 495, 495, 495, 495, 494, 494, 495, 495, 494, 495, 494, 494, 495, 494, 495, 495, 495, 495, 494, 495, 495, 495, 494, 494, 496, 494, 495]"
27,right,"[495, 495, 495, 494, 496, 494, 495, 495, 495, 495, 493, 496, 495, 495, 495, 494, 495, 495, 495, 494, 494, 495, 495, 495, 494, 496, 495, 494, 494, 494, 494, 496, 495, 496, 494, 495, 495, 496, 494, 495, 494, 494, 495, 495, 495, 495, 495, 494, 495, 495, 495, 495, 495, 495, 493, 497, 495, 495, 494, 495, 495, 495, 494, 495, 495, 495, 494, 495, 494, 494, 495, 495, 494, 495, 495, 494, 495, 495, 495, 493, 495, 495, 495, 494, 495, 495, 495, 495, 495, 494, 495, 495, 495, 494, 496, 494, 495, 495, 495, 495, 495, 495, 495, 494, 496, 495, 494, 495, 495, 495, 492, 497, 496, 494, 496, 495, 495, 495, 495, 496, 494, 494, 498, 494, 492, 497, 495, 494, 495, 494, 495, 493, 494, 495, 496, 498, 494, 492, 498, 494, 498, 494, 492, 494, 496, 491, 487, 498, 486, 491, 501, 495, 496, 494, 496, 495, 494, 495, 494, 494, 495, 496, 490, 489, 497, 495, 491, 486, 500, 501, 495, 492, 497, 494, 489, 499, 487, 498, 485, 499, 487, 488, 486, 498, 508, 490, 500, 476, 483, 496, 485, 496, 496, 493, 492, 498, 493, 494, 490, 494, 489, 491, 479, 514, 499, 492, 495, 501, 487, 495, 482, 489, 492, 495, 488, 484, 507, 497, 491, 487, 497, 494, 492, 491, 495, 489, 487, 502, 492, 490, 497, 495, 492, 495, 489, 496, 495, 489, 491, 491, 498, 476, 503, 500, 495, 484, 497, 495, 494, 495, 494, 494, 495, 490, 494, 499, 491, 495, 494, 493, 494, 496, 499, 486, 494, 494, 495, 492, 496, 490, 501, 490, 485, 498, 495, 503, 489, 497, 494, 493, 492, 491, 494, 499, 493, 501, 494, 499, 494, 494, 496, 491, 495, 494, 500, 494, 495, 500, 495, 496, 496, 495, 494, 496, 493, 493, 503, 494, 492, 494, 493, 495, 496, 498, 495, 493, 495, 495, 492, 495, 490, 492, 495, 492, 490, 495, 493, 495, 493, 494, 494, 494, 496, 489, 495, 495, 496, 493, 495, 493, 494, 485, 495, 496, 499, 494, 499, 493, 497, 496, 495, 491, 494, 490, 496, 499, 495, 494, 491, 495, 490, 490, 498, 488, 492, 500, 495, 507, 495, 493, 496, 494, 494, 494, 495, 495, 494, 496, 490, 487, 502, 497, 493, 497, 495, 494, 495, 496, 494, 495, 497, 495, 497, 494, 494, 491, 486, 496, 497, 492, 497, 494, 496, 495, 492, 494, 494, 494, 494, 493, 494, 494, 491, 493, 500, 500, 496, 494, 493, 495, 491, 497, 492, 493, 494, 498, 497, 495, 490, 495, 494, 496, 494, 496, 491, 493, 500, 493, 499, 497, 497, 494, 495, 495, 494, 494, 491, 499, 484, 491, 486, 495, 489, 496, 496, 491, 495, 495, 495, 497, 492, 495, 498, 491, 496, 497, 494, 486, 495, 497, 493, 500, 497, 495, 494, 493, 492, 496, 500, 492, 496, 490, 495, 494, 494, 495, 496, 494, 494, 495, 499, 494, 497, 494, 491, 498, 498, 488, 498, 494, 494, 497, 491, 496, 495, 496, 495, 495, 495, 496, 494, 492, 495, 491, 497, 499, 497, 494, 494, 492, 500, 495, 495, 494, 496, 493, 497, 491, 494, 496, 495, 489, 497, 497, 494, 495, 497, 494, 498, 493, 488, 491, 496, 497, 495, 494, 495, 502, 497, 494, 493, 496, 491, 496, 497, 496, 494, 495, 494, 491, 497, 496, 497, 496, 496, 495, 493, 495, 495, 495, 494, 495, 494, 485, 498, 498, 500]"
28,rest,"[495, 495, 498, 495, 497, 495, 495, 496, 494, 494, 494, 495, 494, 493, 495, 503, 493, 490, 496, 494, 495, 498, 491, 501, 494, 494, 493, 499, 494, 498, 492, 495, 495, 489, 501, 493, 498, 492, 494, 495, 497, 493, 500, 486, 502, 494, 495, 487, 490, 494, 495, 492, 496, 491, 495, 494, 494, 494, 494, 494, 494, 492, 493, 496, 496, 486, 491, 495, 490, 494, 494, 498, 496, 494, 494, 495, 490, 500, 494, 495, 499, 495, 494, 493, 489, 494, 487, 497, 495, 495, 496, 494, 494, 494, 494, 493, 500, 497, 483, 496, 480, 497, 499, 492, 495, 495, 496, 496, 495, 499, 492, 494, 499, 495, 495, 495, 493, 495, 494, 496, 495, 495, 495, 495, 496, 493, 494, 494, 495, 494, 494, 495, 495, 494, 495, 495, 494, 494, 495, 494, 494, 494, 495, 494, 494, 495, 494, 494, 494, 495, 495, 494, 495, 495, 495, 496, 495, 495, 495, 495, 496, 496, 495, 496, 496, 495, 496, 496, 495, 496, 496, 496, 496, 497, 495, 495, 495, 496, 496, 495, 496, 495, 494, 492, 502, 495, 499, 496, 496, 496, 496, 496, 496, 496, 495, 495, 495, 496, 495, 496, 495, 496, 495, 496, 496, 495, 495, 495, 496, 495, 494, 495, 495, 495, 495, 495, 495, 495, 496, 496, 495, 495, 496, 496, 495, 495, 496, 495, 496, 495, 496, 495, 495, 495, 495, 495, 496, 496, 495, 495, 495, 495, 495, 496, 495, 496, 496, 495, 493, 494, 496, 495, 496, 496, 495, 495, 495, 495, 495, 495, 495, 495, 495, 496, 495, 495, 495, 495, 495, 495, 495, 495, 495, 495, 496, 495, 496, 495, 495, 495, 494, 496, 495, 495, 495, 497, 496, 495, 496, 496, 495, 496, 496, 495, 495, 497, 495, 495, 495, 495, 495, 495, 495, 495, 495, 494, 495, 495, 495, 495, 494, 495, 495, 495, 495, 495, 495, 495, 495, 496, 495, 495, 495, 495, 495, 495, 494, 495, 496, 495, 495, 495, 495, 495, 495, 495, 495, 495, 495, 495, 495, 495, 495, 495, 496, 495, 495, 495, 495, 495, 495, 495, 495, 494, 495, 496, 494, 495, 496, 496, 494, 495, 495, 495, 496, 495, 495, 495, 495, 495, 495, 494, 495, 495, 494, 495, 495, 495, 495, 495, 495, 495, 495, 494, 495, 495, 495, 495, 495, 495, 495, 495, 495, 494, 495, 495, 496, 495, 495, 495, 495, 495, 494, 495, 495, 494, 495, 495, 495, 494, 496, 495, 495, 494, 495, 495, 495, 495, 494, 495, 495, 495, 495, 495, 495, 494, 494, 495, 495, 496, 495, 495, 495, 495, 495, 495, 495, 494, 496, 495, 495, 495, 495, 495, 494, 495, 495, 494, 495, 494, 494, 495, 495, 494, 495, 495, 495, 495, 495, 495, 495, 494, 495, 494, 495, 495, 494, 494, 495, 496, 496, 494, 495, 495, 495, 494, 495, 495, 494, 494, 495, 494, 495, 495, 495, 494, 495, 495, 495, 494, 495, 494, 495, 494, 495, 495, 494, 495, 494, 495, 495, 495, 495, 495, 495, 496, 495, 494, 495, 494, 495, 494, 494, 494, 495, 495, 495, 494, 496, 494, 494, 495, 495, 495, 493, 495, 495, 494, 494, 495, 495, 494, 495, 494, 495, 495, 495, 494, 494, 495, 494, 495, 494, 496, 494, 495, 495, 495, 494, 494, 494, 494, 494, 495, 495, 494, 495, 495, 495, 494, 495, 494, 494, 495, 495, 494, 495, 495, 494, 494, 494, 495, 495, 494, 494, 495, 495]"
29,right,"[494, 494, 494, 496, 495, 494, 494, 495, 494, 494, 494, 495, 493, 494, 494, 494, 494, 494, 495, 494, 494, 494, 494, 494, 494, 495, 495, 494, 494, 495, 494, 494, 495, 494, 495, 494, 494, 495, 494, 495, 495, 494, 495, 495, 494, 494, 495, 495, 494, 495, 494, 495, 494, 495, 494, 494, 494, 494, 494, 494, 495, 493, 494, 495, 494, 494, 494, 495, 494, 494, 495, 494, 494, 495, 495, 494, 494, 495, 495, 493, 495, 495, 495, 494, 494, 494, 494, 494, 495, 495, 494, 494, 495, 494, 494, 495, 495, 494, 495, 494, 494, 494, 494, 495, 494, 495, 494, 494, 495, 494, 495, 494, 495, 494, 494, 494, 498, 494, 494, 493, 494, 493, 497, 494, 494, 495, 494, 495, 493, 495, 494, 495, 495, 494, 493, 498, 490, 494, 493, 487, 507, 484, 492, 503, 494, 495, 496, 495, 483, 495, 492, 453, 503, 471, 468, 491, 479, 530, 494, 484, 481, 487, 487, 511, 491, 499, 496, 475, 507, 494, 495, 491, 492, 464, 497, 497, 493, 489, 513, 488, 490, 491, 490, 478, 494, 495, 489, 498, 497, 501, 482, 496, 496, 496, 499, 493, 495, 494, 494, 487, 484, 502, 489, 498, 485, 497, 497, 499, 495, 488, 495, 490, 498, 497, 493, 494, 496, 487, 485, 492, 499, 499, 497, 498, 500, 492, 494, 495, 497, 491, 488, 497, 494, 492, 491, 498, 496, 493, 487, 505, 507, 494, 496, 490, 495, 496, 496, 494, 494, 491, 499, 494, 494, 496, 487, 499, 493, 493, 483, 500, 496, 496, 495, 496, 494, 496, 493, 498, 498, 499, 488, 494, 498, 497, 492, 500, 497, 496, 494, 498, 486, 496, 500, 497, 497, 499, 492, 489, 497, 497, 495, 489, 496, 497, 496, 490, 496, 494, 494, 494, 498, 499, 494, 490, 493, 496, 497, 495, 487, 496, 500, 497, 494, 496, 501, 494, 499, 496, 495, 496, 494, 492, 491, 491, 492, 482, 500, 490, 502, 494, 492, 496, 495, 494, 495, 495, 504, 495, 473, 497, 501, 492, 498, 494, 496, 495, 495, 495, 492, 494, 494, 494, 497, 494, 486, 493, 500, 498, 495, 495, 495, 496, 495, 495, 495, 496, 497, 491, 483, 501, 502, 493, 493, 493, 494, 494, 495, 495, 494, 494, 494, 494, 497, 494, 499, 501, 496, 500, 489, 487, 501, 496, 495, 495, 493, 498, 496, 495, 496, 497, 480, 495, 493, 494, 492, 494, 494, 496, 494, 494, 494, 493, 495, 495, 500, 493, 502, 499, 487, 504, 496, 495, 496, 495, 496, 495, 493, 491, 495, 487, 497, 497, 491, 506, 496, 495, 498, 497, 494, 494, 497, 495, 494, 495, 491, 493, 501, 492, 495, 498, 486, 493, 497, 495, 495, 497, 494, 496, 499, 498, 495, 493, 493, 493, 490, 488, 498, 483, 499, 495, 486, 497, 496, 495, 495, 496, 496, 495, 497, 494, 494, 489, 496, 493, 500, 495, 498, 492, 492, 496, 496, 494, 495, 496, 495, 494, 497, 497, 495, 500, 498, 502, 489, 494, 497, 495, 495, 494, 495, 497, 494, 497, 494, 493, 487, 494, 496, 493, 497, 494, 495, 496, 486, 500, 495, 496, 495, 495, 492, 494, 493, 492, 494, 494, 489, 497, 493, 496, 496, 497, 488, 490, 496, 493, 496, 495, 494, 502, 496, 497, 496, 496, 488, 495, 494, 494, 492, 481, 494, 494, 497, 494, 497, 495, 493, 487, 494, 494, 499, 501, 493, 489, 494, 501, 498, 492]"
30,rest,"[494, 494, 492, 496, 493, 493, 498, 496, 494, 497, 494, 497, 489, 492, 497, 494, 496, 495, 495, 494, 495, 495, 494, 493, 498, 491, 496, 497, 491, 493, 493, 495, 496, 495, 493, 498, 497, 495, 487, 498, 497, 495, 490, 495, 493, 495, 494, 493, 494, 495, 494, 496, 492, 493, 490, 493, 493, 497, 494, 496, 486, 493, 496, 496, 494, 494, 495, 493, 495, 494, 497, 494, 501, 486, 487, 496, 495, 495, 495, 495, 495, 494, 494, 495, 495, 495, 495, 494, 494, 488, 491, 506, 488, 495, 496, 497, 496, 494, 495, 495, 494, 498, 495, 494, 497, 496, 494, 495, 487, 498, 495, 495, 495, 494, 494, 495, 495, 497, 495, 495, 495, 494, 495, 494, 494, 495, 495, 495, 495, 495, 494, 495, 496, 494, 495, 495, 495, 495, 496, 495, 495, 495, 496, 496, 495, 495, 496, 495, 495, 495, 495, 496, 494, 497, 495, 495, 495, 494, 494, 497, 497, 496, 495, 496, 496, 495, 495, 496, 496, 496, 496, 496, 495, 496, 496, 496, 495, 497, 496, 494, 495, 496, 496, 496, 495, 493, 496, 493, 496, 495, 495, 495, 494, 495, 495, 496, 495, 496, 495, 495, 496, 496, 496, 495, 495, 494, 494, 497, 495, 495, 495, 494, 497, 496, 495, 495, 495, 495, 497, 494, 494, 494, 494, 496, 495, 497, 495, 495, 495, 495, 494, 493, 498, 495, 496, 495, 495, 496, 496, 495, 495, 494, 495, 495, 495, 495, 495, 495, 495, 495, 495, 493, 495, 494, 496, 494, 493, 498, 493, 494, 496, 495, 495, 495, 495, 495, 495, 495, 495, 494, 495, 495, 495, 495, 494, 495, 495, 495, 495, 495, 494, 495, 495, 494, 495, 494, 492, 497, 495, 494, 495, 495, 495, 495, 495, 495, 495, 495, 494, 494, 495, 494, 495, 495, 495, 495, 494, 496, 495, 493, 497, 494, 496, 495, 494, 495, 495, 495, 493, 495, 495, 495, 495, 495, 495, 495, 495, 494, 495, 495, 495, 494, 496, 495, 495, 494, 495, 495, 495, 495, 494, 495, 495, 495, 495, 496, 495, 496, 494, 495, 495, 494, 495, 495, 494, 495, 495, 495, 495, 496, 495, 494, 495, 495, 495, 494, 496, 495, 494, 495, 495, 495, 495, 495, 495, 495, 495, 495, 495, 495, 494, 495, 494, 495, 494, 494, 495, 495, 493, 497, 496, 494, 496, 495, 495, 495, 495, 496, 494, 494, 496, 495, 494, 495, 495, 494, 494, 495, 495, 495, 495, 496, 493, 497, 494, 495, 495, 495, 494, 494, 494, 495, 495, 494, 495, 495, 495, 495, 495, 495, 495, 494, 495, 495, 494, 495, 495, 496, 494, 495, 495, 494, 496, 494, 493, 496, 495, 495, 496, 495, 494, 494, 495, 494, 495, 495, 495, 494, 494, 498, 495, 495, 494, 495, 495, 494, 495, 495, 495, 495, 495, 495, 495, 494, 494, 494, 495, 495, 495, 494, 495, 495, 495, 495, 495, 495, 494, 494, 496, 495, 494, 495, 494, 495, 494, 494, 496, 495, 495, 495, 494, 495, 494, 495, 495, 495, 494, 495, 495, 495, 495, 494, 495, 491, 499, 495, 496, 495, 495, 495, 492, 497, 495, 495, 495, 495, 495, 495, 494, 494, 495, 494, 494, 495, 494, 495, 495, 495, 495, 495, 495, 495, 495, 495, 495, 494, 494, 493, 495, 495, 495, 496, 495, 494, 496, 495, 494, 495, 495, 494, 495, 495, 495, 495, 494, 495, 495, 495, 494, 494, 495, 495, 495, 496, 495, 495, 492]"
31,right,"[497, 495, 494, 495, 494, 495, 495, 495, 495, 495, 494, 496, 495, 494, 494, 495, 496, 494, 495, 495, 492, 496, 498, 495, 495, 495, 495, 495, 495, 495, 495, 495, 494, 495, 494, 494, 495, 494, 493, 496, 493, 496, 495, 496, 495, 494, 496, 495, 495, 495, 495, 495, 495, 495, 495, 495, 494, 495, 494, 495, 494, 495, 494, 495, 495, 495, 495, 495, 495, 495, 495, 495, 494, 494, 495, 494, 495, 495, 495, 494, 495, 495, 495, 494, 497, 495, 494, 496, 495, 495, 495, 494, 495, 494, 494, 494, 495, 495, 494, 495, 494, 494, 495, 494, 495, 495, 494, 495, 494, 493, 496, 494, 495, 495, 496, 494, 495, 495, 495, 494, 495, 494, 495, 495, 495, 492, 495, 495, 495, 498, 495, 494, 494, 495, 495, 494, 495, 495, 494, 494, 495, 495, 494, 494, 494, 494, 496, 495, 496, 496, 494, 493, 496, 495, 494, 495, 494, 494, 495, 494, 494, 494, 495, 494, 494, 495, 496, 492, 496, 495, 494, 494, 494, 494, 493, 495, 496, 486, 500, 496, 495, 495, 493, 494, 496, 495, 495, 491, 495, 494, 494, 491, 496, 492, 494, 495, 495, 502, 495, 491, 497, 502, 492, 489, 493, 499, 496, 493, 495, 495, 498, 493, 496, 497, 498, 492, 482, 491, 495, 497, 491, 492, 506, 491, 494, 480, 476, 498, 498, 487, 483, 502, 500, 494, 496, 511, 491, 494, 496, 491, 478, 497, 502, 487, 499, 500, 500, 486, 493, 489, 496, 502, 493, 483, 511, 493, 493, 498, 494, 495, 496, 502, 492, 497, 504, 485, 489, 502, 493, 495, 484, 510, 496, 494, 491, 493, 506, 493, 494, 486, 469, 496, 496, 495, 503, 508, 486, 504, 496, 494, 495, 494, 495, 497, 499, 500, 494, 496, 503, 487, 509, 490, 498, 498, 489, 485, 499, 481, 501, 496, 501, 485, 492, 498, 491, 489, 495, 495, 500, 497, 485, 496, 499, 497, 485, 484, 493, 494, 494, 497, 480, 497, 485, 498, 495, 496, 495, 495, 493, 491, 493, 482, 501, 493, 494, 487, 511, 496, 498, 494, 499, 496, 491, 495, 494, 496, 494, 490, 499, 494, 497, 489, 495, 495, 498, 496, 496, 497, 497, 495, 495, 495, 495, 496, 500, 493, 492, 499, 487, 490, 494, 503, 496, 497, 495, 491, 497, 497, 496, 499, 507, 493, 500, 490, 500, 490, 496, 494, 494, 498, 494, 491, 498, 498, 491, 493, 491, 495, 494, 484, 505, 491, 501, 495, 496, 495, 493, 493, 497, 494, 494, 501, 492, 504, 493, 490, 493, 494, 496, 494, 500, 493, 494, 496, 494, 485, 486, 499, 496, 493, 493, 493, 494, 493, 496, 494, 500, 489, 501, 488, 496, 488, 497, 500, 499, 494, 494, 495, 498, 493, 498, 493, 490, 493, 497, 498, 491, 498, 491, 504, 495, 496, 498, 496, 492, 495, 495, 498, 496, 488, 486, 493, 495, 501, 497, 498, 495, 494, 494, 494, 498, 498, 494, 493, 492, 501, 496, 487, 495, 498, 497, 503, 494, 495, 500, 497, 498, 493, 491, 494, 495, 496, 491, 498, 481, 503, 495, 494, 495, 496, 495, 498, 498, 490, 498, 492, 497, 503, 496, 494, 489, 496, 490, 498, 503, 497, 494, 495, 489, 496, 494, 494, 495, 494, 495, 497, 495, 492, 494, 488, 502, 491, 499, 498, 499, 498, 490, 494, 500, 496, 497, 494, 494, 495, 492, 500, 497, 494, 495, 473, 504, 494, 499, 497, 502, 498, 495]"
32,rest,"[494, 494, 493, 498, 495, 495, 486, 506, 490, 495, 504, 498, 495, 494, 492, 496, 497, 499, 495, 495, 500, 485, 495, 494, 472, 502, 495, 495, 496, 500, 494, 494, 492, 490, 491, 490, 505, 491, 491, 489, 496, 498, 496, 496, 494, 503, 492, 492, 493, 489, 481, 490, 499, 496, 490, 492, 497, 501, 494, 494, 494, 481, 495, 497, 484, 501, 498, 496, 494, 497, 493, 495, 502, 491, 496, 491, 495, 493, 493, 500, 492, 499, 494, 490, 496, 494, 496, 497, 493, 481, 500, 492, 471, 495, 499, 493, 492, 496, 494, 494, 494, 493, 499, 492, 495, 500, 494, 496, 490, 497, 494, 496, 495, 494, 494, 494, 495, 494, 495, 494, 494, 494, 494, 494, 494, 495, 494, 494, 495, 494, 494, 494, 493, 494, 495, 494, 494, 492, 494, 495, 494, 495, 495, 495, 494, 495, 495, 495, 495, 494, 495, 495, 495, 495, 495, 495, 495, 495, 495, 495, 495, 495, 495, 496, 494, 494, 497, 498, 496, 497, 494, 498, 496, 496, 496, 496, 495, 496, 495, 495, 496, 495, 497, 495, 496, 496, 495, 487, 499, 496, 496, 496, 495, 496, 495, 495, 495, 495, 496, 495, 495, 495, 495, 495, 496, 496, 495, 495, 495, 496, 494, 495, 493, 500, 495, 496, 494, 495, 495, 495, 495, 495, 495, 495, 495, 495, 496, 495, 495, 495, 494, 496, 495, 496, 495, 494, 488, 499, 496, 495, 496, 496, 495, 495, 495, 495, 495, 495, 495, 495, 494, 495, 496, 495, 495, 494, 496, 494, 495, 495, 494, 494, 495, 495, 495, 495, 495, 494, 496, 495, 494, 499, 491, 496, 497, 495, 495, 495, 496, 494, 495, 495, 495, 495, 495, 495, 495, 495, 494, 494, 496, 495, 495, 494, 497, 494, 497, 495, 495, 495, 496, 495, 494, 494, 495, 494, 498, 494, 495, 495, 495, 494, 495, 494, 497, 495, 495, 495, 495, 494, 495, 495, 496, 495, 495, 495, 495, 495, 495, 495, 495, 495, 494, 496, 492, 495, 494, 494, 493, 495, 495, 495, 494, 494, 495, 495, 494, 495, 495, 495, 494, 495, 495, 493, 494, 495, 494, 496, 494, 496, 495, 495, 495, 494, 494, 494, 495, 495, 494, 495, 494, 495, 495, 495, 494, 495, 495, 495, 495, 494, 495, 494, 494, 495, 494, 495, 495, 495, 494, 495, 495, 495, 495, 495, 494, 495, 491, 495, 496, 496, 495, 496, 495, 495, 494, 495, 494, 494, 494, 494, 495, 495, 494, 494, 495, 495, 495, 495, 492, 497, 495, 495, 494, 494, 494, 497, 494, 494, 494, 494, 493, 495, 494, 495, 495, 494, 495, 494, 495, 493, 496, 495, 494, 494, 491, 495, 495, 494, 496, 495, 494, 495, 494, 494, 495, 495, 495, 496, 495, 495, 494, 494, 495, 494, 494, 494, 494, 494, 494, 494, 495, 495, 495, 495, 494, 494, 494, 494, 495, 495, 495, 494, 495, 494, 495, 494, 494, 494, 494, 495, 494, 494, 495, 494, 496, 495, 495, 494, 496, 493, 494, 494, 495, 495, 495, 495, 494, 494, 494, 494, 494, 496, 494, 496, 494, 494, 494, 495, 494, 494, 495, 495, 494, 494, 494, 497, 494, 494, 494, 493, 495, 495, 495, 494, 494, 494, 495, 494, 494, 494, 495, 493, 496, 495, 496, 493, 494, 495, 494, 494, 495, 494, 494, 494, 494, 493, 494, 495, 494, 496, 494, 494, 494, 494, 494, 495, 495, 495, 495, 494, 494, 494, 494, 497, 493, 494, 495]"
33,right,"[494, 490, 500, 495, 495, 494, 495, 494, 495, 494, 494, 494, 495, 494, 495, 494, 494, 493, 494, 494, 496, 497, 494, 494, 494, 492, 493, 495, 495, 494, 494, 494, 494, 494, 494, 494, 495, 494, 495, 495, 494, 494, 494, 494, 495, 494, 493, 493, 494, 495, 494, 495, 495, 494, 494, 493, 494, 494, 494, 494, 495, 494, 494, 494, 493, 495, 494, 494, 494, 495, 493, 495, 493, 496, 494, 496, 494, 494, 497, 494, 494, 494, 495, 494, 494, 494, 494, 493, 495, 494, 494, 494, 494, 493, 497, 495, 494, 495, 494, 494, 494, 494, 494, 495, 494, 494, 494, 494, 495, 494, 495, 494, 496, 494, 495, 488, 499, 495, 495, 494, 494, 495, 494, 495, 494, 495, 494, 494, 494, 495, 494, 494, 496, 494, 494, 494, 495, 492, 496, 495, 493, 496, 496, 494, 494, 495, 496, 495, 493, 491, 495, 493, 495, 495, 494, 500, 494, 494, 495, 494, 496, 497, 490, 498, 497, 492, 493, 497, 494, 494, 489, 506, 487, 494, 488, 497, 496, 496, 493, 498, 495, 495, 494, 493, 493, 489, 502, 500, 487, 496, 497, 486, 497, 493, 492, 495, 498, 491, 496, 492, 491, 506, 496, 491, 498, 498, 493, 508, 495, 490, 495, 493, 503, 496, 485, 495, 483, 495, 498, 475, 495, 495, 494, 496, 496, 494, 494, 497, 499, 494, 492, 502, 501, 491, 487, 490, 507, 490, 493, 485, 488, 497, 502, 492, 495, 494, 496, 500, 492, 490, 496, 499, 493, 494, 494, 489, 491, 485, 497, 495, 497, 496, 487, 496, 497, 500, 492, 491, 494, 493, 485, 498, 498, 499, 497, 494, 497, 496, 491, 493, 490, 490, 497, 497, 493, 495, 495, 491, 508, 497, 494, 498, 495, 499, 492, 499, 493, 492, 495, 495, 492, 495, 493, 499, 497, 480, 497, 503, 490, 495, 492, 491, 494, 499, 493, 492, 493, 494, 495, 493, 490, 496, 494, 490, 500, 495, 492, 501, 490, 496, 494, 495, 491, 496, 496, 494, 497, 493, 494, 496, 493, 493, 502, 493, 493, 496, 493, 493, 501, 493, 494, 491, 492, 490, 494, 493, 495, 498, 499, 494, 495, 500, 488, 494, 498, 496, 496, 495, 494, 492, 497, 495, 499, 498, 495, 495, 496, 492, 493, 492, 492, 495, 496, 494, 495, 495, 492, 494, 502, 492, 493, 495, 492, 496, 494, 494, 493, 494, 491, 497, 494, 495, 497, 497, 493, 495, 495, 495, 494, 494, 494, 491, 494, 492, 485, 498, 493, 496, 496, 494, 494, 492, 500, 493, 497, 488, 496, 488, 497, 493, 497, 495, 493, 495, 497, 491, 493, 495, 492, 490, 494, 496, 495, 493, 498, 492, 490, 491, 495, 486, 489, 492, 501, 497, 496, 499, 493, 495, 495, 492, 495, 493, 496, 494, 488, 493, 496, 493, 500, 498, 492, 492, 498, 494, 494, 499, 496, 493, 493, 493, 490, 489, 495, 492, 492, 496, 494, 497, 487, 498, 493, 490, 498, 495, 491, 494, 499, 493, 495, 493, 498, 486, 500, 494, 499, 493, 494, 495, 495, 493, 494, 491, 498, 497, 495, 486, 499, 494, 495, 486, 496, 497, 494, 503, 491, 494, 498, 494, 494, 494, 496, 496, 493, 494, 489, 503, 490, 489, 495, 492, 494, 496, 495, 494, 494, 496, 494, 494, 492, 494, 494, 488, 493, 480, 495, 495, 497, 493, 500, 496, 493, 494, 492, 495, 494, 495, 491, 495, 489, 495, 493, 495, 494, 495, 493, 493]"
34,rest,"[494, 486, 492, 491, 493, 495, 490, 495, 496, 495, 495, 495, 496, 494, 495, 495, 493, 494, 494, 497, 495, 495, 482, 499, 510, 499, 489, 496, 494, 495, 495, 494, 496, 494, 497, 494, 491, 494, 498, 494, 493, 488, 498, 495, 494, 509, 499, 497, 496, 493, 494, 494, 494, 494, 494, 494, 489, 484, 494, 496, 492, 496, 496, 490, 496, 499, 494, 494, 495, 494, 494, 494, 493, 494, 495, 495, 492, 487, 496, 495, 495, 496, 495, 495, 495, 494, 494, 494, 495, 494, 494, 495, 494, 494, 494, 494, 494, 495, 495, 494, 494, 495, 495, 494, 494, 495, 494, 494, 495, 495, 494, 494, 494, 494, 495, 495, 495, 495, 495, 495, 495, 495, 496, 495, 495, 495, 495, 492, 494, 497, 495, 496, 494, 496, 495, 496, 496, 495, 495, 495, 495, 495, 496, 496, 495, 495, 496, 496, 495, 493, 496, 494, 496, 493, 497, 495, 495, 495, 495, 494, 495, 496, 495, 495, 496, 495, 495, 495, 496, 495, 495, 496, 495, 494, 492, 492, 500, 495, 495, 497, 495, 495, 495, 495, 495, 495, 495, 495, 495, 495, 496, 495, 495, 495, 496, 494, 494, 495, 495, 496, 495, 493, 495, 494, 495, 495, 495, 495, 495, 495, 495, 495, 495, 494, 495, 495, 495, 495, 495, 494, 495, 494, 495, 495, 495, 495, 494, 494, 494, 495, 495, 494, 494, 493, 494, 493, 494, 495, 496, 495, 494, 495, 495, 495, 495, 495, 495, 495, 495, 495, 494, 495, 494, 495, 495, 495, 495, 496, 496, 494, 495, 495, 495, 493, 497, 495, 494, 494, 495, 495, 495, 495, 495, 494, 494, 495, 495, 495, 495, 496, 495, 495, 496, 494, 496, 495, 495, 494, 496, 494, 495, 495, 494, 496, 493, 494, 494, 496, 495, 495, 495, 495, 495, 495, 495, 495, 494, 495, 495, 495, 494, 495, 495, 494, 495, 495, 494, 495, 495, 495, 495, 495, 495, 495, 495, 495, 495, 493, 496, 495, 495, 494, 494, 495, 495, 495, 494, 495, 494, 495, 495, 495, 495, 494, 494, 495, 494, 494, 494, 495, 494, 495, 495, 495, 495, 491, 495, 495, 495, 495, 495, 495, 497, 495, 495, 494, 494, 494, 494, 495, 495, 495, 494, 495, 495, 492, 497, 493, 496, 494, 495, 494, 494, 494, 495, 495, 494, 495, 494, 495, 494, 495, 495, 494, 495, 494, 495, 494, 495, 492, 494, 496, 495, 497, 494, 495, 495, 494, 496, 495, 494, 495, 495, 494, 494, 495, 494, 494, 495, 495, 494, 495, 495, 494, 496, 494, 494, 494, 494, 495, 495, 494, 494, 495, 495, 494, 494, 497, 494, 495, 495, 494, 494, 495, 494, 494, 494, 494, 494, 493, 495, 494, 494, 495, 494, 495, 493, 496, 494, 495, 495, 494, 495, 494, 495, 494, 494, 495, 494, 495, 494, 495, 493, 494, 492, 496, 495, 494, 495, 494, 494, 495, 494, 494, 494, 495, 494, 494, 494, 495, 494, 495, 495, 495, 493, 496, 495, 494, 494, 494, 494, 494, 495, 494, 495, 493, 497, 494, 493, 495, 490, 498, 495, 495, 495, 494, 495, 495, 494, 495, 494, 494, 494, 495, 494, 494, 495, 494, 494, 494, 496, 494, 492, 496, 494, 496, 492, 496, 495, 494, 495, 494, 494, 494, 494, 494, 494, 494, 495, 494, 494, 495, 494, 494, 494, 494, 494, 494, 494, 498, 494, 494, 495, 494, 494, 494, 495, 494, 494, 494, 494, 495, 495, 494, 494, 492, 497]"
35,right,"[494, 494, 494, 494, 496, 493, 494, 495, 494, 494, 494, 495, 494, 494, 494, 494, 495, 494, 494, 494, 493, 495, 495, 494, 494, 494, 494, 494, 494, 494, 494, 494, 494, 494, 494, 494, 494, 494, 494, 494, 495, 494, 493, 497, 495, 494, 494, 494, 494, 494, 495, 494, 494, 494, 494, 495, 495, 494, 495, 493, 495, 495, 494, 494, 494, 495, 494, 494, 495, 494, 495, 495, 494, 494, 495, 494, 494, 494, 494, 495, 494, 494, 498, 493, 494, 495, 494, 494, 494, 495, 494, 494, 494, 494, 493, 494, 495, 494, 494, 494, 494, 494, 495, 495, 494, 494, 494, 494, 492, 494, 495, 494, 494, 494, 494, 497, 493, 496, 493, 498, 496, 496, 493, 496, 494, 494, 494, 494, 494, 494, 495, 495, 494, 495, 496, 493, 492, 498, 497, 493, 497, 486, 493, 499, 495, 493, 490, 500, 498, 481, 508, 490, 494, 494, 490, 501, 494, 501, 493, 477, 494, 491, 501, 498, 494, 489, 503, 491, 494, 494, 494, 494, 493, 494, 495, 489, 496, 474, 491, 493, 495, 488, 493, 497, 500, 495, 492, 491, 497, 494, 494, 493, 495, 484, 482, 496, 485, 494, 497, 488, 487, 491, 494, 490, 495, 493, 495, 494, 493, 491, 493, 497, 488, 492, 488, 499, 492, 490, 498, 493, 495, 497, 494, 494, 498, 491, 494, 498, 492, 481, 495, 497, 493, 490, 495, 490, 494, 494, 488, 498, 494, 490, 491, 500, 494, 491, 496, 493, 494, 493, 499, 490, 495, 489, 497, 494, 495, 490, 496, 497, 495, 496, 492, 494, 492, 501, 496, 489, 484, 494, 500, 503, 493, 491, 495, 494, 497, 493, 498, 494, 493, 495, 500, 494, 495, 494, 498, 490, 491, 494, 496, 496, 491, 494, 494, 494, 494, 496, 496, 495, 491, 495, 493, 492, 494, 494, 493, 481, 497, 496, 494, 493, 495, 493, 496, 497, 493, 496, 497, 494, 490, 494, 494, 495, 498, 486, 499, 496, 495, 494, 494, 494, 495, 500, 491, 492, 493, 493, 491, 499, 496, 495, 495, 493, 494, 493, 494, 494, 494, 493, 491, 496, 495, 492, 491, 488, 504, 495, 489, 495, 495, 495, 497, 497, 494, 492, 483, 492, 498, 489, 494, 488, 500, 491, 496, 497, 494, 494, 496, 494, 493, 500, 495, 492, 491, 508, 496, 493, 494, 494, 488, 494, 495, 494, 494, 494, 495, 490, 487, 500, 490, 496, 491, 491, 496, 494, 495, 482, 507, 496, 496, 494, 492, 494, 494, 494, 494, 504, 493, 498, 494, 483, 495, 495, 496, 495, 496, 494, 494, 495, 495, 490, 497, 498, 493, 494, 501, 494, 494, 498, 496, 496, 493, 496, 494, 495, 496, 495, 495, 492, 490, 489, 497, 495, 497, 495, 495, 494, 493, 494, 496, 493, 499, 494, 494, 491, 494, 493, 496, 494, 491, 491, 496, 494, 494, 497, 496, 495, 496, 495, 491, 496, 496, 490, 500, 497, 497, 494, 494, 494, 494, 496, 495, 493, 494, 494, 490, 497, 479, 501, 495, 493, 496, 495, 497, 491, 493, 494, 495, 494, 493, 497, 493, 493, 491, 500, 501, 495, 491, 497, 492, 495, 496, 495, 495, 496, 494, 493, 494, 494, 486, 484, 500, 498, 494, 496, 495, 493, 495, 492, 493, 495, 495, 491, 498, 494, 491, 500, 495, 496, 493, 490, 498, 494, 495, 493, 494, 494, 494, 497, 494, 493, 492, 496, 494, 491, 496, 495, 496, 490, 497, 500, 497, 494, 498, 495, 495]"
36,rest,"[497, 494, 494, 489, 504, 497, 499, 496, 495, 493, 494, 494, 492, 495, 490, 499, 494, 496, 492, 491, 494, 495, 494, 495, 495, 493, 494, 494, 494, 486, 493, 494, 490, 494, 485, 497, 493, 495, 495, 495, 494, 496, 494, 493, 494, 500, 483, 499, 494, 497, 494, 499, 489, 502, 496, 484, 509, 496, 496, 493, 495, 493, 495, 492, 491, 498, 497, 493, 488, 495, 496, 495, 495, 494, 495, 493, 491, 498, 493, 500, 492, 502, 488, 497, 497, 496, 494, 496, 493, 494, 494, 493, 494, 494, 497, 492, 493, 492, 501, 475, 489, 506, 494, 490, 500, 494, 494, 494, 494, 494, 494, 494, 494, 494, 494, 494, 494, 494, 494, 494, 494, 494, 494, 494, 494, 494, 494, 494, 494, 495, 494, 494, 494, 495, 494, 494, 495, 492, 494, 494, 495, 494, 496, 496, 495, 495, 495, 495, 495, 495, 496, 495, 494, 495, 495, 495, 495, 495, 495, 495, 496, 494, 493, 494, 496, 497, 496, 496, 495, 495, 495, 495, 495, 495, 495, 495, 494, 495, 495, 494, 495, 496, 495, 496, 495, 495, 495, 494, 495, 495, 495, 494, 495, 495, 494, 495, 494, 493, 493, 495, 494, 493, 500, 496, 496, 494, 495, 495, 495, 496, 495, 495, 496, 495, 495, 495, 495, 495, 494, 495, 493, 497, 495, 497, 493, 495, 496, 495, 494, 495, 495, 495, 495, 495, 495, 494, 497, 495, 495, 495, 495, 495, 495, 493, 491, 497, 494, 495, 496, 494, 495, 495, 495, 494, 495, 495, 495, 495, 495, 495, 495, 495, 495, 495, 495, 495, 494, 494, 490, 497, 496, 496, 495, 495, 495, 495, 495, 495, 495, 495, 495, 495, 495, 494, 495, 492, 497, 495, 495, 497, 494, 489, 498, 494, 498, 495, 494, 495, 495, 494, 495, 495, 494, 495, 495, 494, 495, 493, 495, 495, 496, 495, 494, 495, 495, 494, 493, 496, 495, 494, 493, 495, 492, 494, 496, 494, 493, 497, 494, 495, 494, 495, 494, 495, 495, 494, 494, 495, 494, 494, 494, 493, 494, 493, 493, 497, 494, 494, 495, 495, 495, 495, 494, 496, 494, 494, 495, 497, 494, 494, 495, 495, 494, 495, 494, 494, 494, 495, 493, 496, 495, 494, 495, 494, 493, 495, 495, 492, 495, 496, 495, 494, 495, 495, 494, 495, 495, 495, 493, 495, 495, 495, 495, 495, 495, 495, 495, 495, 495, 494, 494, 496, 494, 495, 495, 494, 494, 494, 494, 494, 493, 496, 494, 495, 495, 494, 494, 494, 494, 494, 495, 494, 494, 494, 494, 494, 494, 494, 495, 495, 494, 493, 496, 494, 494, 495, 495, 495, 494, 495, 495, 498, 493, 494, 495, 494, 495, 494, 494, 494, 495, 495, 494, 495, 494, 495, 495, 494, 495, 494, 494, 495, 494, 495, 494, 495, 495, 494, 494, 494, 494, 495, 495, 495, 495, 494, 494, 494, 494, 494, 494, 494, 493, 495, 494, 495, 494, 493, 495, 494, 494, 494, 495, 494, 494, 495, 496, 494, 495, 494, 494, 494, 495, 494, 494, 495, 494, 494, 494, 495, 495, 493, 496, 495, 494, 494, 494, 495, 490, 497, 494, 495, 494, 495, 495, 495, 495, 494, 494, 495, 495, 494, 495, 498, 494, 494, 495, 495, 494, 492, 495, 495, 495, 495, 495, 495, 494, 494, 494, 493, 495, 495, 494, 494, 495, 494, 495, 494, 494, 495, 494, 495, 494, 494, 494, 494, 494, 494, 495, 495, 490, 495, 496, 495, 494, 495, 494]"
37,right,"[494, 494, 494, 494, 494, 495, 494, 494, 494, 495, 495, 493, 491, 496, 495, 495, 495, 494, 494, 495, 494, 494, 495, 494, 494, 494, 495, 494, 495, 494, 495, 494, 494, 495, 492, 495, 494, 495, 494, 495, 496, 494, 494, 495, 494, 494, 494, 495, 494, 494, 495, 494, 494, 494, 494, 494, 494, 495, 494, 494, 495, 494, 496, 492, 495, 494, 494, 494, 495, 495, 494, 495, 494, 495, 495, 494, 494, 494, 495, 494, 494, 494, 492, 494, 494, 496, 494, 493, 494, 494, 494, 494, 494, 494, 494, 494, 494, 495, 494, 494, 494, 494, 494, 495, 493, 496, 495, 495, 492, 495, 495, 494, 494, 495, 494, 494, 494, 495, 494, 494, 497, 495, 494, 497, 495, 492, 496, 495, 495, 493, 493, 495, 495, 494, 496, 494, 498, 494, 494, 494, 492, 494, 496, 499, 489, 496, 492, 494, 491, 484, 501, 495, 491, 494, 502, 493, 493, 496, 496, 495, 494, 497, 496, 494, 492, 495, 481, 497, 496, 488, 496, 492, 487, 494, 495, 499, 493, 494, 495, 493, 496, 501, 494, 493, 478, 503, 496, 489, 495, 495, 495, 495, 495, 495, 492, 496, 491, 494, 482, 506, 495, 497, 493, 499, 499, 488, 499, 495, 493, 494, 495, 492, 499, 497, 494, 492, 487, 494, 495, 487, 492, 501, 492, 495, 492, 494, 496, 492, 497, 492, 493, 491, 498, 498, 493, 494, 489, 495, 500, 494, 491, 495, 496, 495, 494, 497, 494, 494, 494, 490, 495, 495, 494, 492, 494, 494, 494, 500, 491, 490, 496, 503, 495, 497, 494, 486, 502, 494, 496, 495, 493, 493, 495, 495, 495, 494, 495, 493, 494, 494, 491, 495, 491, 495, 499, 495, 496, 498, 495, 495, 495, 491, 497, 477, 506, 494, 498, 494, 494, 496, 494, 492, 493, 494, 494, 495, 496, 492, 490, 498, 494, 490, 501, 493, 494, 495, 495, 494, 493, 498, 501, 498, 498, 496, 494, 492, 496, 493, 493, 497, 496, 495, 494, 495, 494, 498, 494, 497, 491, 498, 496, 494, 498, 496, 496, 494, 498, 493, 493, 494, 494, 494, 494, 496, 495, 494, 495, 494, 492, 491, 498, 495, 495, 495, 494, 495, 491, 496, 497, 495, 494, 496, 496, 493, 494, 494, 492, 496, 496, 489, 492, 497, 492, 494, 494, 497, 497, 494, 494, 489, 492, 493, 494, 496, 495, 494, 493, 495, 494, 495, 494, 495, 493, 500, 496, 495, 491, 492, 494, 490, 491, 494, 494, 493, 487, 497, 494, 494, 495, 494, 495, 489, 496, 494, 490, 494, 497, 494, 488, 493, 497, 495, 498, 495, 494, 495, 494, 495, 494, 489, 494, 492, 496, 492, 493, 492, 494, 496, 496, 501, 491, 496, 494, 492, 498, 494, 498, 491, 494, 493, 500, 494, 492, 497, 499, 493, 494, 484, 492, 495, 492, 492, 498, 494, 494, 495, 494, 495, 493, 494, 494, 493, 494, 494, 497, 494, 494, 499, 494, 495, 494, 498, 497, 494, 493, 491, 495, 495, 496, 494, 500, 498, 495, 495, 495, 491, 494, 486, 494, 493, 497, 495, 496, 495, 493, 494, 496, 490, 494, 494, 495, 494, 495, 497, 496, 494, 493, 494, 489, 492, 502, 495, 494, 493, 499, 495, 493, 491, 496, 496, 494, 492, 492, 496, 494, 495, 491, 493, 492, 499, 498, 495, 496, 494, 496, 495, 496, 494, 493, 489, 493, 497, 495, 494, 493, 493, 488, 495, 494, 489, 494, 495, 506, 500, 495, 495]"
38,rest,"[494, 495, 496, 494, 494, 494, 494, 495, 483, 498, 492, 500, 489, 498, 494, 501, 494, 495, 488, 498, 494, 495, 494, 494, 495, 494, 495, 496, 495, 499, 494, 492, 493, 493, 495, 497, 494, 494, 496, 494, 493, 494, 496, 488, 500, 494, 496, 495, 492, 494, 495, 497, 488, 495, 495, 494, 497, 501, 489, 496, 496, 499, 494, 495, 496, 495, 496, 497, 493, 493, 493, 494, 483, 494, 495, 491, 493, 496, 494, 495, 495, 493, 496, 493, 498, 492, 498, 495, 494, 494, 497, 496, 495, 494, 494, 494, 495, 494, 495, 489, 498, 495, 494, 498, 491, 502, 490, 493, 500, 495, 494, 497, 495, 493, 494, 494, 495, 494, 495, 495, 491, 496, 494, 491, 498, 497, 490, 502, 490, 497, 495, 494, 490, 495, 494, 495, 494, 495, 490, 490, 498, 493, 496, 494, 492, 495, 495, 495, 494, 494, 494, 494, 494, 495, 495, 494, 494, 495, 495, 494, 494, 495, 494, 494, 495, 494, 495, 494, 495, 494, 494, 495, 495, 495, 495, 495, 495, 496, 495, 496, 495, 495, 496, 495, 495, 496, 495, 496, 495, 495, 495, 495, 496, 495, 495, 494, 495, 495, 494, 495, 495, 497, 496, 496, 496, 495, 496, 495, 495, 495, 495, 495, 496, 496, 495, 496, 495, 496, 496, 496, 496, 496, 495, 494, 497, 495, 495, 496, 495, 495, 495, 495, 495, 495, 496, 494, 494, 496, 495, 497, 496, 496, 492, 503, 494, 495, 495, 495, 495, 495, 495, 495, 495, 496, 495, 495, 495, 495, 495, 496, 496, 495, 496, 494, 496, 495, 489, 499, 496, 496, 496, 496, 496, 495, 497, 494, 494, 496, 495, 495, 495, 495, 496, 495, 495, 495, 496, 494, 495, 494, 492, 498, 495, 497, 495, 495, 495, 495, 495, 495, 495, 495, 494, 495, 495, 495, 495, 496, 495, 494, 495, 495, 496, 495, 495, 495, 495, 494, 496, 495, 495, 495, 495, 494, 495, 493, 497, 495, 495, 496, 496, 495, 494, 494, 496, 496, 495, 494, 496, 496, 494, 495, 496, 495, 495, 494, 495, 495, 495, 496, 495, 494, 495, 493, 497, 495, 495, 495, 495, 495, 494, 493, 496, 495, 494, 495, 495, 494, 496, 493, 497, 495, 495, 495, 495, 495, 494, 495, 494, 496, 495, 495, 495, 495, 495, 495, 494, 495, 495, 495, 495, 495, 493, 495, 494, 497, 495, 495, 495, 495, 494, 495, 495, 495, 495, 495, 495, 495, 495, 494, 495, 495, 495, 495, 495, 495, 495, 494, 495, 492, 495, 495, 493, 497, 494, 495, 495, 495, 494, 495, 495, 494, 495, 495, 495, 495, 495, 495, 494, 494, 494, 494, 494, 495, 492, 494, 495, 497, 496, 495, 496, 495, 495, 494, 494, 495, 495, 495, 494, 495, 494, 495, 495, 495, 495, 494, 494, 495, 495, 494, 495, 495, 495, 495, 495, 495, 495, 495, 494, 494, 494, 495, 495, 495, 494, 495, 494, 494, 495, 495, 494, 495, 495, 494, 494, 495, 493, 495, 494, 494, 494, 495, 494, 495, 494, 494, 495, 495, 494, 496, 494, 494, 494, 495, 495, 495, 495, 494, 495, 494, 495, 494, 495, 495, 494, 494, 495, 495, 493, 495, 495, 495, 495, 495, 495, 494, 494, 495, 495, 494, 495, 494, 494, 493, 493, 496, 494, 495, 495, 495, 494, 495, 493, 496, 494, 495, 496, 493, 494, 494, 494, 494, 497, 495, 494, 495, 495, 494, 494, 495, 495, 495, 495, 493, 495, 495, 495]"
39,right,"[495, 494, 495, 494, 494, 494, 494, 495, 495, 495, 494, 495, 495, 494, 494, 495, 495, 494, 495, 494, 494, 495, 494, 495, 494, 494, 495, 495, 494, 495, 495, 494, 495, 495, 495, 494, 494, 496, 494, 495, 495, 494, 495, 494, 495, 494, 494, 495, 494, 496, 495, 495, 495, 495, 494, 496, 495, 494, 495, 495, 497, 493, 495, 494, 494, 495, 495, 494, 494, 494, 495, 494, 495, 495, 494, 495, 495, 495, 494, 495, 494, 495, 495, 494, 495, 495, 494, 494, 495, 494, 495, 497, 494, 492, 494, 495, 494, 495, 495, 494, 494, 493, 495, 495, 495, 495, 494, 494, 495, 494, 495, 494, 495, 495, 494, 494, 497, 494, 494, 494, 495, 494, 496, 495, 495, 495, 495, 494, 494, 496, 494, 495, 497, 493, 492, 496, 496, 493, 498, 493, 497, 495, 494, 494, 497, 493, 497, 488, 504, 494, 488, 497, 485, 503, 495, 496, 499, 491, 495, 495, 499, 495, 494, 476, 492, 512, 486, 489, 499, 497, 493, 495, 494, 501, 490, 493, 503, 485, 483, 488, 501, 495, 490, 499, 491, 495, 495, 498, 488, 498, 497, 490, 494, 494, 494, 500, 495, 494, 497, 491, 491, 497, 496, 490, 493, 494, 495, 495, 490, 493, 494, 482, 499, 499, 495, 498, 502, 495, 505, 494, 484, 505, 493, 498, 496, 493, 493, 503, 497, 490, 493, 493, 496, 494, 494, 501, 500, 495, 478, 503, 496, 497, 494, 495, 494, 494, 494, 495, 497, 494, 492, 497, 494, 492, 493, 494, 486, 490, 494, 502, 493, 494, 497, 494, 500, 494, 494, 487, 499, 495, 492, 490, 492, 497, 495, 495, 495, 494, 494, 494, 496, 501, 494, 492, 494, 496, 490, 499, 495, 494, 489, 495, 495, 497, 494, 493, 493, 497, 498, 492, 499, 490, 499, 490, 496, 493, 494, 493, 491, 495, 491, 497, 495, 491, 491, 489, 496, 496, 495, 495, 494, 496, 496, 494, 497, 494, 497, 483, 496, 490, 486, 489, 496, 498, 499, 492, 494, 497, 497, 495, 491, 494, 494, 485, 488, 497, 496, 488, 497, 503, 494, 496, 493, 495, 495, 494, 496, 494, 492, 500, 492, 492, 496, 493, 493, 495, 506, 486, 488, 496, 495, 493, 495, 495, 497, 494, 494, 496, 492, 493, 495, 495, 496, 485, 503, 499, 492, 493, 494, 498, 494, 494, 494, 493, 483, 494, 499, 494, 497, 491, 498, 495, 497, 494, 495, 492, 495, 499, 496, 492, 494, 492, 495, 495, 491, 499, 485, 496, 495, 493, 490, 491, 494, 494, 493, 498, 497, 496, 492, 495, 494, 491, 500, 494, 493, 490, 497, 499, 490, 490, 495, 497, 497, 496, 485, 497, 498, 485, 496, 493, 491, 494, 492, 500, 493, 493, 498, 494, 498, 494, 492, 494, 495, 496, 498, 491, 495, 492, 493, 500, 489, 495, 492, 495, 492, 493, 494, 494, 493, 495, 494, 492, 498, 495, 494, 497, 486, 493, 499, 494, 496, 496, 495, 494, 493, 497, 493, 494, 495, 496, 492, 497, 494, 483, 496, 487, 494, 492, 497, 495, 499, 495, 498, 492, 496, 494, 494, 494, 497, 498, 495, 495, 493, 503, 495, 496, 494, 500, 500, 492, 494, 494, 498, 491, 493, 495, 490, 494, 494, 493, 487, 495, 501, 488, 490, 495, 494, 494, 494, 495, 494, 496, 493, 495, 494, 494, 497, 493, 495, 496, 496, 496, 496, 494, 495, 494, 495, 493, 498, 491, 491, 494, 494, 493, 484, 498, 485]"
40,rest,"[504, 497, 498, 495, 494, 494, 493, 495, 488, 494, 495, 496, 498, 498, 494, 493, 492, 496, 492, 497, 491, 492, 492, 494, 496, 496, 494, 495, 497, 496, 492, 494, 496, 498, 488, 509, 496, 494, 495, 499, 493, 492, 501, 490, 494, 494, 493, 494, 494, 498, 499, 506, 492, 495, 484, 503, 498, 496, 494, 495, 495, 492, 494, 490, 495, 493, 495, 496, 493, 496, 492, 488, 500, 495, 494, 495, 494, 493, 495, 494, 495, 494, 496, 489, 489, 494, 500, 499, 498, 495, 494, 495, 494, 494, 494, 498, 491, 494, 495, 494, 498, 500, 500, 496, 495, 497, 494, 495, 496, 494, 494, 494, 496, 493, 494, 494, 495, 494, 494, 494, 494, 494, 495, 495, 494, 493, 494, 495, 493, 493, 494, 496, 493, 492, 495, 493, 495, 494, 495, 495, 495, 494, 495, 495, 494, 495, 495, 495, 495, 495, 495, 495, 495, 494, 494, 493, 499, 497, 495, 495, 496, 495, 495, 495, 495, 494, 495, 495, 495, 495, 495, 496, 495, 495, 496, 496, 495, 494, 496, 494, 495, 495, 496, 495, 495, 495, 494, 495, 493, 495, 496, 492, 495, 496, 497, 496, 496, 496, 495, 495, 495, 496, 496, 495, 495, 494, 495, 495, 495, 496, 495, 495, 495, 495, 495, 495, 495, 495, 495, 495, 495, 494, 497, 496, 493, 496, 495, 494, 495, 495, 495, 495, 495, 495, 495, 495, 494, 494, 495, 494, 495, 495, 495, 494, 495, 495, 494, 494, 495, 495, 494, 495, 495, 495, 495, 495, 496, 495, 495, 493, 495, 496, 495, 495, 495, 495, 495, 496, 494, 495, 495, 495, 495, 494, 495, 495, 495, 495, 494, 495, 492, 495, 497, 495, 495, 495, 496, 494, 494, 495, 495, 495, 494, 495, 494, 495, 495, 495, 495, 494, 495, 494, 495, 495, 494, 495, 494, 496, 494, 494, 495, 495, 495, 495, 494, 495, 495, 494, 495, 495, 495, 495, 495, 495, 495, 494, 495, 494, 495, 495, 494, 496, 495, 495, 495, 493, 497, 493, 496, 494, 495, 495, 495, 495, 495, 495, 495, 494, 495, 494, 495, 495, 495, 494, 494, 494, 494, 494, 494, 496, 495, 495, 494, 495, 495, 495, 495, 495, 495, 495, 495, 495, 495, 495, 495, 494, 494, 495, 495, 494, 495, 495, 494, 495, 495, 495, 490, 498, 495, 495, 495, 494, 494, 494, 495, 495, 498, 494, 494, 495, 495, 495, 494, 495, 495, 494, 494, 495, 494, 494, 494, 495, 495, 494, 495, 495, 494, 495, 494, 494, 494, 494, 495, 494, 494, 494, 494, 493, 495, 495, 495, 495, 495, 494, 496, 495, 496, 494, 494, 496, 494, 495, 494, 495, 495, 494, 495, 494, 495, 494, 495, 494, 494, 495, 494, 494, 494, 495, 494, 494, 495, 494, 495, 494, 494, 494, 493, 495, 495, 495, 495, 494, 495, 495, 495, 495, 494, 494, 494, 495, 495, 494, 494, 494, 494, 494, 494, 495, 494, 494, 494, 495, 494, 493, 490, 496, 494, 495, 496, 495, 494, 494, 495, 494, 494, 495, 495, 494, 494, 495, 495, 494, 494, 495, 494, 494, 494, 492, 496, 494, 493, 497, 495, 495, 495, 494, 495, 495, 494, 494, 494, 494, 494, 495, 494, 494, 495, 494, 494, 494, 494, 495, 494, 495, 495, 494, 493, 496, 495, 494, 496, 496, 495, 494, 495, 494, 495, 494, 494, 494, 495, 495, 494, 494, 494, 493, 496, 494, 495, 494, 495, 494, 493, 494, 495, 495, 494]"
41,right,"[494, 494, 495, 494, 494, 495, 494, 494, 495, 495, 495, 495, 494, 494, 495, 494, 493, 494, 496, 495, 495, 494, 494, 494, 494, 494, 495, 494, 494, 494, 494, 494, 494, 495, 494, 494, 494, 494, 494, 494, 494, 494, 494, 495, 494, 494, 494, 494, 494, 494, 495, 495, 494, 494, 494, 494, 494, 495, 496, 495, 494, 494, 495, 494, 494, 494, 491, 496, 495, 496, 494, 495, 494, 494, 494, 495, 494, 495, 495, 494, 494, 495, 495, 494, 495, 495, 494, 494, 495, 495, 494, 494, 495, 495, 495, 494, 496, 495, 494, 494, 494, 494, 494, 495, 494, 494, 495, 494, 497, 494, 494, 493, 494, 494, 494, 495, 495, 494, 495, 495, 495, 494, 496, 493, 497, 497, 494, 494, 492, 493, 497, 493, 496, 494, 497, 494, 496, 496, 495, 495, 495, 493, 498, 495, 496, 494, 496, 494, 495, 494, 494, 495, 494, 495, 494, 496, 494, 493, 495, 494, 495, 493, 496, 494, 494, 494, 491, 493, 496, 497, 498, 495, 491, 498, 496, 489, 494, 489, 499, 494, 500, 486, 497, 494, 497, 494, 496, 500, 498, 500, 487, 497, 493, 496, 494, 501, 488, 495, 493, 495, 497, 491, 496, 498, 496, 498, 497, 500, 487, 486, 488, 498, 497, 494, 496, 491, 488, 498, 482, 503, 488, 500, 493, 500, 488, 478, 495, 493, 497, 496, 496, 494, 495, 497, 494, 493, 495, 492, 496, 502, 503, 494, 486, 497, 497, 495, 496, 494, 496, 493, 495, 492, 494, 496, 498, 481, 491, 494, 493, 499, 493, 495, 495, 491, 494, 494, 495, 494, 493, 488, 496, 492, 494, 492, 498, 496, 493, 488, 498, 490, 496, 490, 500, 493, 494, 494, 492, 495, 497, 492, 503, 484, 494, 482, 498, 493, 493, 494, 496, 495, 491, 496, 495, 494, 493, 496, 491, 493, 495, 495, 494, 497, 491, 500, 500, 498, 489, 502, 494, 498, 494, 494, 492, 497, 496, 494, 495, 493, 490, 494, 493, 494, 497, 497, 500, 491, 496, 493, 495, 492, 496, 493, 495, 495, 494, 496, 493, 491, 492, 504, 496, 494, 498, 494, 494, 493, 494, 495, 495, 496, 494, 495, 494, 494, 494, 494, 492, 485, 503, 494, 497, 496, 495, 488, 495, 494, 480, 499, 496, 493, 501, 495, 495, 490, 495, 494, 489, 496, 495, 496, 494, 493, 493, 494, 491, 499, 493, 497, 493, 495, 497, 495, 499, 495, 497, 491, 487, 500, 493, 494, 490, 490, 496, 496, 496, 493, 499, 501, 499, 496, 496, 495, 492, 502, 494, 497, 493, 494, 491, 496, 500, 496, 493, 497, 495, 495, 497, 498, 496, 492, 494, 499, 499, 496, 489, 502, 494, 490, 487, 500, 499, 496, 498, 492, 496, 490, 493, 499, 494, 493, 494, 492, 501, 488, 502, 499, 501, 496, 491, 496, 491, 495, 496, 501, 494, 491, 496, 493, 493, 493, 495, 498, 496, 487, 490, 494, 500, 494, 494, 498, 502, 493, 493, 505, 490, 494, 497, 491, 499, 498, 497, 481, 494, 494, 494, 494, 495, 495, 493, 492, 496, 496, 499, 499, 493, 496, 494, 494, 500, 496, 495, 495, 494, 495, 497, 498, 491, 499, 497, 494, 495, 500, 498, 492, 494, 494, 496, 486, 500, 496, 491, 495, 496, 493, 495, 500, 493, 493, 497, 495, 494, 498, 496, 491, 491, 494, 499, 491, 498, 493, 500, 501, 499, 493, 497, 497, 498, 495, 501, 492, 492, 493, 495, 498, 494, 493]"
