,label,input
1,right,"[495, 494, 495, 495, 495, 495, 495, 495, 495, 495, 495, 495, 494, 494, 494, 494, 495, 494, 495, 494, 495, 495, 495, 494, 494, 494, 494, 494, 494, 494, 494, 494, 495, 494, 494, 495, 494, 494, 494, 495, 495, 495, 495, 494, 494, 495, 495, 494, 495, 494, 495, 495, 494, 494, 494, 495, 494, 494, 495, 494, 495, 494, 495, 494, 495, 495, 495, 495, 494, 495, 494, 494, 494, 494, 495, 494, 495, 494, 494, 494, 495, 494, 494, 494, 494, 494, 494, 494, 494, 495, 494, 494, 494, 494, 494, 493, 494, 494, 494, 494, 494, 494, 494, 495, 494, 494, 494, 494, 495, 494, 494, 494, 494, 494, 494, 494, 494, 494, 494, 495, 494, 494, 495, 494, 494, 494, 494, 494, 494, 494, 494, 494, 494, 495, 494, 494, 494, 494, 494, 494, 494, 494, 495, 495, 495, 494, 494, 495, 494, 494, 494, 494, 493, 495, 495, 495, 498, 496, 494, 493, 495, 492, 500, 498, 494, 491, 498, 495, 500, 501, 493, 497, 489, 498, 491, 501, 496, 495, 498, 500, 482, 509, 498, 496, 502, 488, 501, 511, 491, 495, 506, 505, 503, 500, 496, 483, 505, 512, 493, 499, 498, 491, 497, 492, 498, 496, 500, 506, 509, 484, 495, 504, 497, 505, 490, 495, 493, 502, 495, 490, 508, 497, 494, 491, 495, 492, 496, 485, 505, 502, 490, 499, 495, 494, 505, 496, 494, 496, 498, 500, 492, 496, 494, 496, 505, 491, 495, 495, 494, 499, 497, 498, 497, 496, 492, 499, 499, 500, 498, 507, 497, 495, 501, 495, 501, 495, 493, 498, 494, 493, 495, 490, 493, 501, 496, 494, 499, 498, 500, 495, 495, 500, 495, 495, 496, 493, 502, 490, 496, 493, 497, 494, 494, 495, 500, 494, 495, 493, 495, 495, 493, 493, 493, 499, 496, 493, 494, 496, 494, 498, 497, 494, 499, 494, 495, 494, 489, 493, 502, 497, 495, 492, 497, 499, 497, 496, 492, 494, 493, 494, 495, 492, 494, 497, 496, 494, 493, 497, 495, 490, 492, 493, 491, 493, 495, 495, 495, 493, 494, 493, 497, 493, 498, 491, 496, 493, 494, 495, 487, 494, 496, 494, 494, 498, 496, 497, 494, 494, 494, 493, 497, 494, 492, 494, 493, 496, 493, 494, 498, 494, 493, 491, 491, 494, 493, 493, 493, 494, 494, 494, 493, 493, 499, 493, 493, 497, 493, 497, 499, 494, 495, 495, 496, 493, 493, 493, 493, 494, 494, 492, 495, 495, 495, 493, 498, 494, 493, 496, 492, 494, 493, 490, 496, 492, 490, 494, 497, 497, 495, 493, 491, 494, 493, 494, 493, 493, 495, 493, 495, 493, 500, 496, 492, 494, 495, 492, 498, 492, 492, 494, 492, 493, 493, 496, 493, 494, 497, 496, 497, 494, 494, 494, 494, 502, 493, 492, 490, 490, 492, 494, 497, 490, 491, 494, 503, 493, 493, 493, 492, 496, 492, 492, 493, 493, 498, 493, 495, 487, 495, 496, 492, 495, 495, 492, 495, 491, 493, 494, 488, 493, 498, 494, 493, 491, 492, 493, 494, 494, 498, 497, 492, 491, 498, 499, 487, 494, 494, 488, 494, 497, 494, 493, 493, 495, 490, 494, 497, 494, 495, 493, 488, 493, 500, 489, 496, 498, 495, 488, 493, 495, 490, 491, 487, 494, 494, 499, 493, 494, 494, 493, 496, 506, 494, 489, 493, 496, 494, 491, 492, 494, 497, 495, 492, 493, 497, 495, 492, 498, 492, 495, 495, 495, 493, 492, 493, 488, 496]"
2,rest,"[492, 492, 495, 494, 491, 496, 492, 491, 495, 493, 490, 495, 494, 495, 490, 492, 491, 487, 491, 493, 492, 492, 490, 491, 492, 494, 501, 490, 493, 496, 495, 490, 492, 493, 491, 491, 496, 495, 492, 492, 492, 492, 490, 491, 494, 493, 494, 497, 491, 491, 502, 492, 493, 489, 492, 491, 495, 491, 492, 491, 492, 493, 492, 488, 493, 493, 493, 494, 489, 493, 492, 490, 494, 493, 491, 494, 494, 497, 492, 491, 494, 493, 492, 492, 493, 496, 493, 494, 493, 495, 494, 492, 492, 494, 491, 492, 493, 492, 496, 494, 493, 494, 490, 493, 493, 494, 495, 493, 494, 495, 496, 493, 492, 493, 493, 493, 494, 498, 491, 492, 493, 494, 494, 493, 494, 492, 493, 493, 493, 493, 493, 493, 493, 493, 493, 493, 493, 493, 493, 493, 494, 493, 493, 493, 494, 493, 493, 493, 493, 494, 493, 493, 493, 493, 493, 492, 492, 492, 493, 492, 492, 492, 492, 492, 492, 492, 492, 492, 492, 492, 492, 491, 492, 492, 491, 491, 492, 492, 491, 491, 491, 491, 492, 492, 492, 492, 491, 492, 492, 491, 492, 492, 492, 492, 492, 492, 492, 491, 492, 492, 492, 492, 492, 492, 492, 492, 492, 492, 492, 492, 492, 493, 492, 492, 492, 492, 492, 492, 492, 492, 492, 492, 493, 492, 492, 493, 492, 492, 492, 492, 493, 492, 493, 492, 493, 493, 493, 492, 493, 492, 493, 493, 493, 492, 493, 493, 493, 493, 493, 493, 493, 493, 492, 493, 493, 493, 493, 493, 493, 493, 493, 493, 493, 493, 493, 493, 493, 493, 493, 493, 493, 493, 493, 493, 493, 494, 493, 493, 494, 494, 493, 493, 493, 493, 493, 493, 493, 493, 493, 493, 493, 493, 493, 494, 493, 493, 493, 493, 493, 493, 493, 493, 493, 493, 493, 493, 493, 493, 493, 493, 493, 493, 494, 493, 493, 493, 493, 494, 494, 493, 493, 493, 493, 493, 493, 493, 493, 493, 494, 493, 493, 494, 494, 493, 493, 493, 493, 493, 493, 493, 493, 493, 493, 493, 493, 493, 493, 493, 493, 493, 493, 494, 493, 493, 493, 493, 493, 493, 493, 493, 494, 493, 493, 493, 493, 494, 493, 493, 493, 493, 494, 494, 493, 493, 493, 493, 494, 493, 493, 493, 494, 493, 493, 493, 493, 493, 493, 493, 493, 493, 492, 493, 493, 493, 493, 494, 493, 493, 493, 493, 493, 493, 493, 493, 493, 493, 493, 493, 493, 493, 493, 493, 493, 494, 493, 493, 493, 493, 494, 493, 493, 493, 493, 493, 494, 493, 493, 493, 493, 493, 493, 493, 493, 493, 493, 493, 493, 493, 493, 493, 493, 493, 493, 493, 493, 493, 493, 493, 493, 493, 493, 492, 493, 493, 493, 493, 493, 493, 493, 493, 493, 493, 493, 493, 493, 493, 494, 493, 493, 493, 493, 494, 493, 493, 493, 493, 493, 493, 493, 493, 493, 493, 493, 493, 493, 492, 493, 493, 493, 493, 493, 493, 494, 493, 493, 494, 493, 493, 493, 493, 493, 493, 493, 493, 493, 494, 494, 494, 493, 493, 493, 493, 493, 493, 493, 493, 493, 493, 493, 493, 493, 493, 493, 493, 493, 493, 493, 493, 493, 493, 493, 493, 493, 493, 493, 493, 493, 493, 493, 494, 493, 493, 493, 493, 493, 493, 493, 492, 493, 493, 493, 493, 493, 493, 493, 493, 492, 493, 494, 493, 493, 493, 493, 493, 493, 493, 493, 492, 493, 493, 493, 493, 493, 493, 493, 493]"
3,right,"[493, 493, 493, 493, 493, 493, 493, 493, 493, 492, 492, 493, 493, 494, 493, 493, 493, 493, 493, 493, 493, 493, 493, 493, 493, 493, 493, 493, 494, 493, 494, 493, 493, 493, 493, 494, 493, 493, 493, 493, 493, 493, 493, 493, 493, 493, 493, 493, 493, 493, 494, 493, 493, 493, 493, 494, 493, 494, 493, 494, 494, 493, 493, 493, 493, 493, 493, 493, 493, 494, 493, 493, 493, 493, 493, 493, 493, 493, 493, 493, 494, 493, 493, 493, 493, 494, 493, 493, 494, 493, 493, 493, 493, 494, 493, 493, 493, 493, 493, 493, 493, 493, 493, 493, 494, 493, 493, 493, 493, 493, 493, 493, 493, 493, 493, 494, 493, 494, 494, 494, 493, 493, 494, 493, 494, 493, 493, 493, 494, 493, 493, 494, 494, 494, 494, 493, 494, 494, 493, 493, 493, 494, 494, 493, 494, 493, 494, 494, 493, 493, 493, 493, 493, 494, 493, 493, 493, 493, 494, 493, 493, 493, 493, 493, 493, 494, 493, 493, 493, 493, 493, 493, 493, 493, 493, 494, 493, 493, 493, 493, 493, 494, 493, 493, 493, 494, 494, 493, 493, 494, 492, 494, 495, 494, 495, 493, 494, 494, 489, 494, 495, 495, 494, 494, 494, 492, 493, 496, 493, 497, 494, 495, 492, 497, 495, 496, 498, 495, 496, 499, 501, 492, 492, 496, 497, 497, 494, 493, 494, 490, 494, 496, 502, 509, 487, 494, 488, 498, 504, 501, 501, 485, 498, 504, 491, 500, 485, 499, 496, 495, 494, 492, 492, 500, 493, 495, 496, 501, 486, 488, 494, 500, 492, 495, 497, 496, 497, 495, 495, 496, 500, 495, 502, 497, 491, 496, 492, 495, 499, 493, 495, 494, 498, 490, 493, 499, 497, 495, 496, 500, 494, 492, 492, 496, 488, 498, 492, 496, 491, 497, 496, 495, 497, 496, 494, 495, 489, 486, 497, 491, 494, 494, 488, 492, 498, 492, 494, 499, 495, 495, 493, 490, 495, 493, 495, 494, 499, 492, 494, 496, 495, 492, 494, 493, 497, 493, 493, 493, 492, 491, 495, 493, 493, 492, 498, 497, 494, 495, 501, 489, 496, 493, 492, 493, 495, 498, 495, 487, 493, 498, 494, 494, 494, 493, 493, 493, 494, 482, 490, 493, 490, 495, 491, 496, 493, 492, 490, 492, 492, 492, 490, 492, 494, 492, 497, 494, 493, 492, 493, 497, 494, 497, 491, 493, 494, 491, 494, 496, 491, 497, 494, 494, 495, 494, 493, 492, 492, 494, 493, 498, 494, 494, 492, 492, 498, 491, 493, 494, 495, 491, 493, 493, 493, 495, 496, 491, 499, 492, 494, 494, 494, 492, 492, 490, 491, 495, 494, 495, 495, 492, 493, 496, 493, 491, 494, 494, 493, 493, 494, 492, 496, 493, 492, 496, 493, 493, 490, 495, 496, 494, 492, 493, 494, 493, 493, 493, 493, 493, 494, 495, 491, 493, 493, 495, 493, 494, 492, 495, 493, 494, 495, 493, 491, 491, 494, 498, 495, 489, 492, 493, 491, 493, 492, 490, 494, 498, 489, 490, 497, 496, 495, 501, 496, 496, 490, 492, 499, 494, 497, 491, 493, 491, 501, 490, 495, 493, 488, 492, 494, 492, 496, 494, 495, 492, 496, 494, 491, 494, 496, 494, 494, 492, 491, 492, 494, 494, 492, 495, 492, 492, 494, 495, 494, 492, 494, 493, 494, 495, 492, 492, 491, 495, 493, 495, 492, 493, 492, 496, 494, 491, 492, 494, 497, 495, 490, 498, 494, 494, 494, 494, 492, 490, 486, 488, 496, 493, 492]"
4,rest,"[492, 493, 495, 493, 492, 496, 500, 494, 493, 492, 495, 496, 491, 495, 492, 495, 490, 491, 492, 488, 495, 494, 493, 489, 492, 495, 492, 495, 493, 494, 494, 489, 494, 493, 493, 490, 495, 492, 494, 494, 492, 494, 497, 492, 492, 493, 495, 491, 493, 494, 493, 494, 494, 495, 491, 494, 489, 493, 492, 492, 496, 492, 494, 491, 490, 489, 495, 492, 490, 494, 493, 493, 495, 492, 491, 491, 494, 491, 493, 493, 493, 491, 490, 493, 490, 493, 493, 493, 495, 493, 495, 493, 493, 493, 494, 492, 492, 492, 493, 495, 492, 493, 494, 493, 494, 492, 495, 492, 496, 493, 493, 492, 494, 494, 493, 494, 491, 494, 493, 494, 493, 494, 494, 492, 494, 493, 492, 493, 490, 493, 493, 492, 492, 493, 491, 493, 492, 492, 493, 492, 493, 492, 493, 493, 493, 492, 492, 493, 493, 493, 492, 492, 492, 493, 493, 493, 493, 493, 493, 493, 493, 493, 493, 493, 493, 493, 492, 493, 492, 492, 492, 492, 493, 493, 492, 492, 492, 492, 492, 492, 491, 493, 492, 492, 490, 491, 494, 492, 492, 492, 492, 493, 492, 493, 492, 492, 492, 492, 491, 492, 492, 492, 492, 492, 492, 492, 492, 492, 491, 492, 492, 492, 492, 492, 491, 492, 491, 492, 492, 492, 492, 491, 491, 492, 491, 492, 491, 492, 491, 491, 492, 492, 492, 492, 492, 492, 492, 492, 492, 493, 492, 492, 492, 492, 493, 493, 492, 492, 493, 492, 492, 492, 493, 492, 493, 493, 492, 492, 492, 493, 493, 493, 492, 493, 493, 493, 493, 493, 493, 493, 493, 493, 493, 494, 493, 493, 493, 493, 494, 493, 493, 493, 493, 493, 493, 493, 493, 493, 493, 493, 493, 493, 494, 494, 494, 493, 493, 494, 493, 493, 494, 494, 493, 494, 493, 493, 493, 493, 493, 494, 493, 493, 494, 493, 493, 493, 493, 494, 493, 493, 493, 494, 494, 494, 493, 493, 494, 494, 493, 494, 493, 494, 493, 494, 494, 493, 493, 494, 493, 493, 493, 494, 493, 493, 493, 493, 494, 493, 493, 494, 493, 494, 494, 493, 493, 493, 493, 493, 493, 493, 494, 494, 493, 493, 493, 494, 493, 493, 493, 493, 493, 493, 493, 493, 494, 493, 493, 494, 493, 494, 493, 493, 493, 493, 494, 493, 493, 493, 493, 493, 493, 494, 493, 493, 493, 493, 493, 493, 493, 493, 493, 493, 493, 494, 494, 493, 493, 493, 493, 493, 493, 493, 493, 493, 494, 493, 493, 493, 494, 493, 493, 493, 493, 493, 493, 493, 493, 494, 493, 493, 494, 493, 494, 493, 493, 493, 493, 494, 493, 493, 493, 493, 494, 494, 493, 493, 493, 493, 493, 493, 493, 493, 493, 493, 493, 493, 493, 493, 493, 493, 493, 493, 493, 492, 492, 492, 493, 492, 492, 493, 492, 492, 492, 492, 492, 492, 492, 492, 492, 492, 492, 492, 492, 492, 492, 493, 492, 492, 492, 492, 493, 493, 492, 492, 492, 492, 492, 492, 492, 492, 493, 492, 492, 492, 492, 493, 492, 492, 492, 493, 493, 492, 492, 492, 492, 492, 492, 493, 492, 493, 492, 492, 492, 492, 493, 492, 492, 492, 492, 493, 492, 492, 492, 492, 492, 492, 492, 492, 493, 493, 492, 492, 492, 493, 492, 492, 492, 492, 493, 493, 492, 492, 492, 492, 492, 492, 492, 492, 493, 492, 492, 492, 492, 492, 492, 492, 492, 492, 492, 493, 492, 492, 493, 492, 492, 492, 492]"
5,right,"[493, 492, 492, 492, 492, 493, 493, 493, 493, 492, 493, 493, 493, 493, 494, 494, 493, 493, 492, 493, 492, 492, 493, 493, 493, 493, 493, 493, 493, 493, 493, 493, 493, 493, 493, 492, 493, 493, 493, 493, 493, 493, 493, 494, 493, 493, 493, 493, 494, 493, 493, 493, 493, 493, 493, 494, 493, 493, 493, 493, 493, 493, 493, 493, 493, 493, 493, 493, 493, 493, 493, 493, 493, 493, 493, 493, 493, 493, 493, 493, 493, 493, 493, 493, 493, 493, 493, 493, 493, 493, 493, 493, 493, 493, 493, 493, 493, 493, 493, 492, 492, 493, 493, 493, 492, 493, 493, 493, 493, 493, 493, 493, 493, 493, 493, 492, 492, 493, 493, 493, 493, 493, 493, 492, 493, 494, 493, 492, 493, 492, 493, 493, 492, 492, 492, 493, 493, 493, 492, 493, 493, 493, 493, 492, 492, 493, 493, 493, 492, 493, 493, 492, 493, 493, 493, 493, 493, 493, 493, 493, 493, 492, 493, 493, 493, 493, 492, 493, 492, 493, 489, 495, 493, 482, 497, 492, 472, 479, 509, 495, 501, 498, 491, 492, 494, 482, 500, 496, 493, 492, 493, 490, 494, 493, 485, 491, 488, 496, 496, 483, 497, 490, 494, 503, 494, 491, 494, 497, 500, 493, 479, 503, 498, 489, 500, 478, 500, 498, 491, 499, 499, 483, 507, 491, 499, 487, 497, 489, 498, 495, 502, 490, 501, 493, 493, 491, 493, 497, 499, 500, 502, 496, 488, 496, 473, 489, 498, 498, 498, 504, 508, 499, 498, 496, 495, 491, 488, 497, 494, 504, 490, 512, 495, 493, 498, 490, 503, 491, 502, 494, 490, 490, 498, 499, 496, 499, 499, 494, 492, 493, 487, 493, 499, 497, 492, 483, 495, 494, 493, 497, 492, 501, 489, 494, 492, 496, 499, 493, 489, 490, 492, 495, 492, 493, 500, 494, 491, 490, 493, 493, 498, 492, 491, 496, 493, 494, 487, 499, 494, 497, 495, 494, 494, 493, 496, 494, 497, 494, 499, 495, 495, 498, 497, 495, 494, 497, 497, 493, 494, 491, 491, 494, 492, 495, 495, 491, 496, 496, 493, 502, 494, 496, 490, 494, 493, 494, 492, 495, 494, 496, 488, 499, 494, 493, 494, 492, 494, 495, 499, 496, 489, 497, 499, 493, 496, 499, 491, 494, 494, 495, 492, 490, 498, 493, 493, 498, 493, 494, 489, 493, 499, 494, 497, 495, 493, 495, 489, 493, 492, 494, 496, 494, 492, 492, 493, 493, 497, 495, 491, 493, 498, 493, 490, 492, 499, 494, 494, 491, 495, 492, 497, 495, 495, 493, 495, 492, 494, 492, 491, 495, 490, 494, 491, 494, 491, 494, 494, 493, 495, 495, 495, 492, 494, 495, 495, 494, 495, 492, 501, 495, 493, 496, 494, 493, 495, 492, 495, 494, 493, 493, 493, 493, 493, 494, 495, 492, 493, 493, 493, 491, 496, 494, 493, 494, 493, 493, 491, 491, 494, 494, 493, 494, 492, 493, 494, 492, 495, 490, 494, 493, 491, 494, 495, 496, 492, 497, 493, 493, 494, 494, 494, 496, 495, 495, 491, 490, 495, 494, 495, 494, 494, 493, 497, 493, 493, 493, 494, 494, 494, 495, 496, 492, 493, 493, 494, 495, 494, 494, 496, 492, 493, 492, 493, 493, 490, 495, 494, 495, 493, 493, 498, 494, 492, 493, 495, 491, 495, 492, 494, 492, 498, 496, 493, 497, 500, 491, 493, 494, 495, 493, 493, 494, 497, 490, 493, 493, 492, 491, 495, 495, 491, 496, 493, 492, 493, 491, 490]"
6,rest,"[493, 492, 492, 497, 492, 493, 495, 492, 491, 493, 492, 493, 494, 493, 494, 495, 495, 492, 493, 492, 494, 491, 495, 493, 493, 496, 495, 494, 493, 494, 492, 491, 499, 490, 491, 494, 496, 497, 494, 492, 493, 493, 492, 498, 494, 494, 493, 494, 492, 493, 496, 497, 493, 494, 490, 493, 493, 495, 491, 494, 492, 493, 494, 488, 494, 492, 493, 502, 490, 492, 493, 497, 493, 490, 495, 496, 492, 492, 494, 493, 492, 494, 496, 495, 493, 496, 489, 493, 494, 495, 494, 490, 494, 490, 493, 493, 488, 494, 495, 493, 495, 492, 496, 492, 494, 495, 492, 493, 493, 493, 493, 493, 493, 493, 493, 493, 493, 493, 493, 493, 493, 493, 493, 493, 493, 493, 492, 493, 493, 493, 493, 493, 493, 493, 493, 493, 493, 493, 493, 493, 493, 493, 492, 492, 492, 492, 493, 493, 492, 492, 492, 493, 493, 493, 492, 492, 493, 493, 492, 492, 493, 492, 492, 492, 492, 492, 492, 492, 492, 492, 492, 492, 493, 493, 492, 492, 493, 493, 492, 493, 493, 493, 492, 492, 492, 492, 493, 492, 492, 492, 493, 492, 492, 492, 492, 493, 492, 492, 492, 493, 492, 493, 492, 492, 493, 493, 493, 493, 493, 493, 493, 493, 492, 493, 493, 493, 493, 493, 493, 493, 493, 493, 493, 493, 493, 492, 492, 493, 493, 493, 493, 493, 493, 493, 493, 493, 493, 493, 493, 493, 493, 493, 493, 493, 493, 493, 493, 493, 493, 493, 493, 493, 493, 493, 493, 493, 493, 494, 493, 493, 493, 493, 493, 493, 492, 493, 493, 493, 493, 493, 493, 493, 493, 493, 493, 493, 493, 493, 493, 493, 493, 493, 493, 493, 493, 493, 493, 493, 493, 493, 493, 493, 493, 493, 493, 493, 493, 493, 493, 493, 493, 493, 493, 493, 493, 493, 493, 493, 492, 493, 493, 493, 493, 493, 493, 493, 493, 493, 493, 492, 493, 493, 493, 493, 493, 493, 493, 493, 493, 493, 494, 493, 493, 493, 493, 493, 493, 492, 493, 493, 493, 493, 493, 493, 493, 493, 493, 493, 493, 494, 493, 493, 493, 493, 493, 493, 493, 493, 493, 493, 493, 493, 493, 493, 493, 493, 493, 493, 493, 493, 493, 493, 493, 493, 493, 493, 493, 493, 493, 493, 493, 493, 493, 493, 493, 493, 493, 493, 493, 493, 493, 493, 493, 493, 493, 493, 493, 493, 493, 493, 493, 493, 493, 493, 493, 493, 493, 493, 493, 492, 493, 492, 493, 493, 492, 492, 492, 492, 492, 491, 491, 491, 491, 491, 491, 491, 492, 492, 491, 492, 491, 492, 491, 491, 492, 491, 492, 491, 492, 492, 492, 491, 492, 491, 491, 493, 492, 492, 491, 492, 492, 492, 492, 492, 492, 492, 492, 492, 492, 492, 492, 492, 492, 492, 492, 492, 493, 492, 492, 492, 493, 492, 492, 492, 492, 492, 493, 493, 492, 493, 493, 492, 493, 493, 493, 493, 493, 493, 492, 493, 492, 492, 492, 492, 492, 492, 492, 493, 493, 493, 493, 492, 493, 493, 493, 493, 493, 493, 493, 493, 493, 493, 493, 493, 493, 493, 493, 493, 494, 493, 493, 493, 493, 494, 493, 493, 493, 494, 493, 493, 493, 493, 494, 493, 493, 494, 493, 493, 494, 493, 493, 493, 494, 494, 494, 493, 493, 494, 494, 494, 494, 494, 494, 494, 494, 494, 494, 494, 493, 494, 493, 494, 494, 493, 493, 494, 494, 494, 494, 493, 494, 494, 494, 494, 493, 494]"
7,right,"[494, 494, 494, 494, 495, 494, 494, 495, 494, 495, 495, 494, 495, 494, 495, 495, 494, 495, 494, 495, 495, 495, 495, 494, 494, 494, 495, 495, 495, 494, 495, 495, 495, 496, 495, 495, 495, 495, 495, 495, 494, 495, 494, 495, 495, 494, 495, 494, 495, 495, 494, 494, 495, 495, 495, 495, 495, 495, 495, 495, 495, 494, 495, 495, 495, 495, 495, 496, 496, 495, 495, 495, 496, 495, 495, 495, 495, 495, 496, 495, 495, 495, 495, 495, 495, 495, 495, 496, 495, 495, 495, 495, 496, 496, 495, 495, 495, 495, 495, 496, 495, 496, 495, 495, 495, 495, 496, 495, 495, 495, 495, 494, 495, 495, 495, 495, 496, 495, 495, 495, 496, 495, 496, 495, 495, 496, 495, 495, 495, 495, 495, 495, 495, 495, 495, 495, 495, 495, 495, 496, 495, 495, 495, 495, 495, 495, 495, 495, 495, 495, 497, 495, 495, 495, 496, 494, 497, 497, 490, 495, 494, 493, 495, 494, 498, 494, 493, 495, 496, 493, 496, 493, 492, 495, 499, 492, 494, 492, 496, 496, 498, 498, 489, 497, 492, 500, 503, 499, 498, 503, 496, 500, 499, 496, 499, 499, 492, 505, 494, 497, 499, 495, 494, 496, 502, 495, 506, 519, 498, 506, 493, 492, 495, 495, 490, 485, 500, 498, 495, 509, 496, 501, 486, 491, 499, 508, 491, 498, 508, 491, 500, 492, 498, 501, 495, 495, 494, 489, 505, 498, 490, 495, 497, 490, 492, 500, 499, 499, 494, 504, 500, 492, 496, 504, 498, 498, 497, 500, 494, 497, 493, 494, 494, 495, 496, 495, 497, 494, 493, 499, 501, 495, 491, 493, 496, 491, 499, 495, 496, 492, 493, 491, 500, 491, 496, 498, 495, 499, 491, 493, 493, 501, 488, 486, 494, 491, 491, 496, 492, 495, 495, 488, 495, 489, 496, 490, 502, 498, 499, 495, 494, 492, 492, 493, 495, 495, 489, 496, 492, 499, 497, 496, 498, 493, 492, 493, 493, 494, 499, 491, 493, 497, 498, 495, 495, 495, 496, 505, 493, 495, 495, 494, 493, 494, 495, 499, 497, 493, 495, 492, 495, 493, 496, 501, 491, 494, 494, 493, 495, 493, 494, 494, 497, 494, 498, 494, 495, 494, 493, 495, 496, 494, 494, 494, 489, 492, 493, 498, 495, 493, 493, 495, 496, 493, 497, 494, 492, 491, 490, 494, 492, 495, 496, 497, 492, 493, 494, 492, 496, 492, 492, 494, 494, 497, 488, 497, 494, 496, 495, 494, 493, 497, 496, 491, 494, 496, 495, 496, 493, 494, 492, 493, 494, 495, 491, 493, 492, 494, 495, 494, 495, 493, 492, 494, 494, 492, 493, 493, 493, 497, 494, 492, 492, 492, 494, 495, 492, 495, 494, 496, 495, 495, 493, 490, 491, 493, 492, 497, 497, 492, 493, 492, 495, 492, 492, 497, 494, 495, 494, 491, 497, 492, 498, 496, 490, 493, 495, 492, 493, 494, 494, 494, 493, 493, 496, 493, 493, 494, 491, 490, 494, 494, 493, 495, 492, 492, 489, 494, 493, 493, 491, 493, 495, 496, 492, 494, 495, 494, 493, 493, 493, 493, 492, 497, 492, 495, 496, 495, 493, 493, 500, 496, 495, 495, 494, 493, 498, 495, 490, 496, 494, 493, 496, 493, 494, 495, 495, 491, 495, 496, 496, 493, 493, 492, 494, 495, 494, 494, 495, 497, 495, 493, 494, 495, 496, 496, 495, 496, 494, 495, 494, 495, 495, 494, 495, 491, 494, 494, 494, 494, 495, 494, 494, 494, 493, 494, 495]"
8,rest,"[498, 495, 502, 495, 496, 493, 496, 495, 497, 497, 498, 493, 495, 496, 497, 494, 495, 497, 496, 495, 493, 497, 497, 496, 496, 496, 496, 497, 499, 496, 496, 498, 495, 497, 496, 498, 498, 495, 498, 496, 496, 497, 495, 497, 496, 501, 492, 497, 496, 497, 498, 498, 490, 498, 495, 498, 497, 491, 496, 496, 497, 496, 496, 496, 497, 495, 495, 496, 497, 499, 496, 495, 497, 497, 494, 496, 496, 495, 497, 495, 497, 496, 496, 495, 496, 498, 498, 496, 496, 495, 496, 495, 495, 496, 496, 496, 497, 496, 496, 498, 497, 497, 496, 496, 495, 496, 496, 496, 496, 496, 496, 496, 496, 496, 495, 495, 496, 496, 495, 495, 495, 495, 496, 496, 496, 495, 495, 496, 495, 496, 496, 496, 495, 495, 495, 495, 496, 495, 495, 496, 495, 496, 495, 495, 495, 495, 496, 495, 495, 495, 495, 495, 495, 494, 494, 494, 495, 495, 494, 495, 495, 495, 494, 494, 494, 494, 494, 494, 494, 494, 494, 494, 493, 494, 493, 494, 493, 494, 494, 494, 494, 494, 494, 493, 494, 494, 494, 494, 494, 495, 494, 494, 494, 494, 494, 494, 494, 494, 494, 494, 495, 494, 494, 494, 494, 495, 495, 494, 494, 495, 494, 495, 494, 495, 495, 494, 494, 495, 495, 494, 494, 494, 494, 495, 495, 495, 494, 494, 494, 494, 495, 494, 494, 494, 494, 494, 494, 494, 494, 494, 494, 494, 495, 494, 495, 494, 495, 495, 495, 495, 494, 494, 494, 495, 494, 495, 494, 495, 495, 495, 495, 495, 495, 495, 495, 495, 495, 495, 495, 495, 495, 496, 495, 495, 495, 495, 495, 495, 495, 495, 495, 495, 495, 495, 495, 495, 495, 495, 495, 495, 495, 495, 495, 495, 495, 495, 495, 495, 495, 495, 495, 495, 495, 495, 494, 495, 495, 495, 494, 495, 495, 494, 494, 494, 494, 495, 495, 494, 494, 494, 495, 494, 494, 494, 495, 494, 494, 495, 494, 495, 494, 494, 494, 494, 495, 494, 494, 494, 494, 495, 494, 494, 494, 494, 494, 494, 494, 494, 494, 494, 494, 494, 494, 494, 494, 494, 494, 494, 494, 494, 493, 494, 494, 494, 494, 494, 494, 494, 495, 494, 494, 494, 493, 494, 494, 494, 494, 494, 494, 494, 494, 493, 494, 494, 494, 493, 493, 494, 493, 493, 493, 494, 494, 493, 494, 493, 493, 494, 493, 493, 494, 493, 494, 494, 493, 493, 494, 494, 493, 494, 494, 494, 494, 494, 494, 494, 494, 493, 494, 493, 493, 494, 493, 494, 493, 493, 493, 494, 494, 493, 493, 494, 494, 493, 494, 494, 494, 494, 494, 494, 494, 494, 494, 494, 494, 494, 494, 494, 494, 493, 494, 494, 494, 494, 494, 494, 494, 494, 493, 494, 494, 494, 493, 494, 494, 494, 494, 494, 494, 494, 494, 494, 494, 494, 494, 494, 494, 494, 494, 494, 494, 494, 494, 494, 494, 494, 494, 493, 495, 494, 494, 493, 494, 494, 494, 494, 494, 494, 494, 494, 494, 494, 493, 493, 494, 494, 494, 493, 495, 494, 494, 494, 494, 494, 493, 494, 493, 494, 494, 494, 493, 493, 494, 493, 493, 494, 493, 494, 493, 493, 493, 493, 493, 493, 494, 493, 493, 493, 494, 493, 493, 494, 493, 494, 494, 493, 493, 494, 493, 493, 493, 494, 493, 493, 493, 493, 493, 494, 493, 494, 493, 494, 493, 493, 493, 494, 494, 493, 493, 493, 494, 493, 493, 493, 493, 494, 493]"
9,right,"[493, 493, 493, 494, 493, 493, 493, 493, 493, 494, 493, 493, 493, 493, 493, 493, 493, 493, 493, 493, 493, 493, 493, 493, 493, 493, 493, 493, 493, 493, 493, 493, 493, 494, 493, 493, 493, 494, 493, 493, 493, 493, 493, 493, 493, 493, 494, 493, 493, 493, 493, 494, 493, 494, 493, 493, 494, 493, 493, 493, 493, 493, 494, 493, 493, 493, 493, 493, 493, 493, 493, 494, 493, 493, 493, 494, 494, 493, 493, 493, 494, 494, 493, 493, 493, 493, 493, 493, 493, 493, 494, 494, 494, 493, 493, 493, 493, 493, 493, 494, 494, 494, 494, 493, 494, 493, 494, 493, 493, 494, 494, 494, 494, 494, 494, 494, 493, 493, 494, 494, 494, 493, 494, 494, 494, 494, 494, 494, 493, 494, 493, 493, 494, 494, 494, 494, 494, 493, 494, 494, 493, 493, 493, 494, 493, 494, 494, 493, 493, 493, 493, 494, 494, 493, 494, 496, 492, 495, 493, 495, 494, 494, 495, 494, 495, 494, 493, 493, 493, 492, 494, 493, 494, 494, 493, 495, 492, 495, 494, 496, 499, 493, 495, 492, 496, 492, 495, 493, 496, 495, 497, 502, 497, 492, 502, 497, 501, 498, 499, 500, 502, 494, 499, 497, 494, 500, 502, 484, 497, 494, 496, 496, 494, 502, 495, 497, 495, 498, 493, 497, 498, 494, 492, 494, 497, 497, 492, 496, 495, 493, 494, 495, 497, 493, 497, 494, 491, 493, 499, 493, 494, 498, 495, 497, 494, 500, 495, 495, 492, 496, 495, 498, 493, 495, 493, 494, 492, 497, 493, 493, 494, 494, 498, 494, 495, 497, 494, 492, 497, 496, 496, 494, 491, 495, 495, 495, 495, 492, 493, 494, 498, 493, 493, 494, 498, 494, 493, 497, 494, 492, 496, 494, 500, 494, 495, 492, 493, 495, 495, 496, 496, 496, 494, 499, 495, 495, 494, 495, 496, 500, 493, 495, 492, 492, 494, 495, 496, 494, 494, 494, 491, 492, 495, 492, 492, 494, 492, 497, 500, 494, 495, 496, 496, 493, 495, 496, 500, 495, 492, 495, 495, 494, 494, 496, 492, 497, 493, 490, 494, 493, 496, 491, 495, 494, 495, 494, 494, 490, 496, 496, 493, 495, 494, 492, 495, 495, 497, 495, 489, 495, 495, 492, 493, 494, 501, 494, 495, 495, 494, 493, 496, 493, 496, 495, 496, 495, 493, 493, 496, 496, 493, 495, 494, 494, 496, 492, 494, 492, 495, 491, 493, 496, 494, 495, 492, 494, 491, 495, 495, 494, 494, 493, 494, 493, 495, 492, 495, 495, 495, 494, 496, 495, 495, 494, 494, 494, 495, 495, 495, 498, 494, 494, 494, 495, 496, 495, 493, 493, 495, 489, 494, 492, 495, 494, 495, 496, 492, 494, 494, 497, 493, 494, 493, 495, 496, 495, 495, 496, 495, 495, 494, 494, 493, 497, 492, 494, 494, 494, 493, 493, 494, 495, 492, 493, 495, 493, 495, 493, 493, 494, 494, 495, 494, 494, 494, 494, 494, 495, 495, 493, 495, 494, 496, 492, 497, 497, 494, 495, 495, 493, 493, 493, 494, 494, 494, 494, 492, 494, 492, 495, 495, 495, 491, 494, 494, 495, 492, 495, 495, 494, 495, 493, 492, 494, 494, 494, 493, 494, 494, 494, 492, 497, 492, 494, 494, 489, 493, 495, 496, 493, 495, 493, 493, 494, 496, 496, 494, 492, 496, 491, 495, 496, 494, 494, 491, 493, 493, 492, 496, 495, 493, 493, 494, 493, 492, 493, 493, 495, 494, 498, 493, 492, 494, 494, 496, 495, 493]"
10,rest,"[494, 493, 493, 491, 494, 496, 492, 493, 496, 494, 491, 497, 494, 494, 495, 493, 494, 494, 494, 492, 492, 494, 494, 493, 495, 495, 494, 494, 496, 493, 494, 490, 495, 492, 494, 495, 497, 493, 495, 495, 494, 493, 494, 494, 494, 493, 496, 494, 496, 492, 494, 495, 491, 493, 494, 495, 494, 495, 494, 494, 495, 491, 493, 494, 493, 495, 493, 495, 494, 491, 492, 494, 494, 493, 493, 493, 493, 494, 494, 492, 492, 493, 496, 496, 491, 495, 493, 494, 493, 492, 493, 495, 494, 491, 494, 493, 493, 494, 493, 493, 493, 493, 493, 493, 493, 493, 493, 493, 493, 493, 493, 493, 493, 493, 493, 493, 493, 493, 493, 493, 493, 493, 493, 493, 493, 494, 493, 493, 493, 493, 493, 493, 492, 493, 492, 493, 492, 492, 492, 492, 492, 492, 492, 492, 492, 492, 492, 492, 491, 492, 492, 492, 492, 492, 492, 493, 492, 492, 492, 492, 492, 492, 492, 492, 493, 492, 492, 492, 492, 492, 492, 492, 492, 492, 492, 492, 492, 492, 493, 492, 492, 492, 492, 493, 492, 492, 492, 492, 492, 493, 492, 492, 493, 493, 492, 492, 493, 492, 493, 493, 493, 493, 493, 493, 493, 493, 493, 493, 493, 493, 493, 492, 493, 493, 493, 493, 493, 493, 492, 493, 493, 493, 493, 493, 493, 493, 493, 493, 493, 493, 492, 494, 493, 493, 493, 493, 493, 493, 493, 493, 493, 493, 493, 493, 492, 493, 493, 493, 493, 493, 493, 494, 492, 493, 493, 493, 493, 493, 493, 493, 493, 493, 493, 493, 493, 493, 493, 493, 492, 493, 494, 493, 493, 493, 493, 493, 493, 493, 493, 493, 494, 494, 493, 493, 494, 493, 494, 493, 493, 494, 493, 494, 493, 493, 493, 494, 493, 494, 493, 494, 493, 493, 494, 493, 494, 493, 493, 493, 493, 494, 493, 494, 493, 494, 493, 494, 493, 493, 494, 493, 494, 493, 493, 494, 493, 494, 493, 493, 493, 494, 493, 493, 493, 494, 494, 493, 493, 493, 493, 493, 493, 494, 494, 494, 494, 493, 493, 494, 494, 493, 494, 493, 494, 494, 493, 493, 493, 494, 493, 494, 493, 493, 494, 493, 494, 493, 494, 493, 493, 493, 493, 494, 494, 493, 493, 493, 494, 493, 493, 493, 493, 493, 493, 494, 493, 493, 493, 494, 493, 494, 493, 494, 494, 493, 493, 493, 494, 493, 493, 493, 494, 493, 493, 493, 493, 493, 493, 493, 493, 493, 494, 493, 493, 493, 493, 493, 493, 493, 493, 493, 493, 493, 494, 493, 494, 494, 493, 493, 493, 494, 494, 493, 493, 493, 493, 494, 493, 493, 493, 493, 494, 495, 493, 494, 493, 493, 493, 493, 493, 494, 493, 494, 494, 494, 494, 494, 494, 493, 494, 494, 493, 493, 493, 494, 493, 493, 493, 493, 494, 493, 494, 493, 494, 493, 494, 493, 494, 494, 494, 494, 493, 494, 494, 494, 494, 493, 494, 494, 494, 493, 493, 494, 494, 494, 494, 494, 493, 494, 493, 494, 494, 494, 494, 494, 494, 493, 494, 494, 494, 494, 493, 494, 493, 494, 493, 493, 494, 493, 494, 493, 493, 494, 494, 494, 494, 494, 493, 494, 494, 494, 495, 494, 494, 494, 494, 495, 494, 494, 494, 494, 494, 494, 494, 494, 494, 494, 494, 495, 494, 494, 495, 495, 495, 494, 495, 495, 494, 495, 495, 495, 494, 495, 495, 495, 495, 495, 495, 494, 495, 495, 495, 495, 494, 495, 495, 495]"
11,right,"[495, 495, 495, 495, 496, 495, 495, 496, 495, 495, 495, 495, 495, 495, 496, 495, 495, 495, 495, 495, 495, 495, 495, 496, 495, 495, 495, 496, 495, 495, 495, 495, 496, 495, 495, 495, 496, 496, 495, 496, 495, 496, 495, 495, 496, 495, 496, 496, 496, 496, 496, 496, 496, 496, 495, 495, 496, 496, 496, 496, 496, 496, 496, 495, 496, 496, 496, 495, 496, 496, 496, 496, 496, 496, 496, 496, 496, 496, 496, 495, 496, 496, 496, 496, 496, 496, 496, 496, 496, 496, 496, 496, 496, 496, 496, 496, 496, 495, 496, 496, 496, 496, 496, 496, 496, 496, 496, 496, 495, 496, 496, 495, 496, 496, 496, 496, 496, 496, 496, 497, 496, 496, 496, 496, 496, 496, 496, 495, 496, 496, 496, 496, 496, 497, 496, 495, 497, 499, 494, 497, 497, 496, 498, 495, 496, 496, 495, 495, 496, 497, 496, 497, 495, 493, 495, 495, 495, 495, 499, 495, 494, 496, 498, 497, 494, 495, 495, 497, 495, 494, 496, 495, 499, 492, 494, 493, 497, 497, 499, 501, 501, 501, 494, 502, 488, 496, 503, 494, 494, 502, 496, 502, 500, 496, 495, 500, 498, 495, 492, 498, 495, 495, 499, 490, 499, 498, 500, 499, 496, 498, 493, 498, 506, 496, 502, 495, 492, 497, 497, 492, 500, 496, 498, 499, 499, 499, 494, 495, 498, 500, 494, 495, 497, 491, 499, 494, 495, 495, 497, 496, 495, 497, 491, 493, 502, 494, 498, 496, 493, 496, 495, 495, 497, 500, 495, 494, 495, 503, 495, 492, 495, 493, 500, 493, 498, 492, 490, 495, 498, 495, 496, 496, 495, 492, 496, 494, 495, 494, 495, 498, 497, 491, 493, 495, 492, 495, 494, 494, 493, 495, 495, 492, 496, 496, 494, 495, 494, 491, 493, 501, 495, 496, 497, 494, 489, 494, 493, 496, 495, 495, 492, 494, 495, 496, 496, 496, 493, 491, 493, 496, 495, 495, 495, 493, 494, 493, 500, 496, 495, 495, 493, 496, 493, 499, 495, 498, 498, 498, 491, 501, 504, 492, 491, 497, 495, 495, 492, 494, 496, 498, 495, 495, 495, 498, 496, 496, 493, 494, 493, 494, 494, 491, 495, 490, 494, 500, 496, 498, 493, 495, 495, 494, 493, 493, 491, 495, 499, 491, 494, 496, 494, 493, 493, 493, 494, 493, 495, 492, 495, 496, 494, 493, 492, 493, 494, 498, 493, 494, 499, 496, 494, 499, 495, 495, 493, 494, 494, 494, 492, 495, 494, 493, 494, 494, 492, 491, 494, 495, 496, 494, 494, 492, 498, 495, 492, 493, 496, 494, 493, 496, 493, 493, 495, 495, 495, 494, 492, 494, 492, 495, 493, 495, 493, 493, 493, 494, 494, 495, 491, 495, 495, 494, 493, 494, 494, 495, 494, 494, 495, 496, 493, 493, 491, 494, 495, 495, 494, 495, 492, 493, 495, 498, 493, 493, 494, 495, 499, 493, 493, 490, 495, 495, 496, 496, 495, 496, 497, 493, 494, 493, 493, 492, 494, 501, 493, 494, 495, 493, 496, 494, 493, 493, 494, 495, 495, 498, 495, 493, 494, 493, 492, 494, 495, 495, 494, 495, 495, 496, 497, 494, 494, 491, 494, 494, 494, 494, 489, 493, 493, 495, 495, 493, 495, 493, 497, 494, 496, 493, 494, 492, 493, 492, 492, 497, 494, 493, 492, 494, 492, 496, 492, 494, 496, 494, 495, 494, 493, 495, 492, 494, 491, 493, 495, 496, 494, 493, 494, 496, 494, 494, 492, 493, 495, 496, 494, 494, 493]"
12,rest,"[494, 492, 494, 495, 496, 494, 497, 492, 494, 493, 496, 495, 494, 492, 496, 495, 496, 494, 494, 495, 492, 495, 493, 495, 495, 495, 494, 493, 496, 494, 493, 495, 496, 494, 495, 495, 496, 493, 494, 494, 493, 496, 494, 494, 492, 494, 493, 497, 495, 493, 494, 495, 495, 494, 493, 489, 492, 495, 494, 493, 493, 494, 495, 494, 495, 494, 494, 491, 495, 493, 493, 495, 494, 493, 493, 492, 497, 493, 494, 494, 490, 492, 493, 493, 495, 492, 495, 493, 501, 491, 495, 494, 495, 493, 494, 492, 494, 491, 489, 494, 493, 494, 495, 493, 493, 492, 494, 493, 494, 494, 494, 494, 494, 494, 493, 494, 494, 494, 493, 493, 494, 493, 494, 494, 494, 494, 494, 494, 492, 494, 494, 494, 494, 494, 494, 494, 494, 494, 494, 494, 494, 494, 493, 494, 494, 493, 493, 493, 493, 493, 493, 493, 493, 493, 494, 493, 493, 493, 493, 493, 493, 493, 493, 493, 493, 493, 493, 493, 493, 492, 493, 493, 493, 493, 493, 493, 493, 493, 493, 493, 493, 492, 493, 493, 493, 493, 493, 493, 493, 493, 492, 493, 493, 493, 493, 493, 493, 493, 493, 493, 493, 493, 493, 494, 493, 493, 493, 493, 493, 493, 493, 493, 493, 493, 493, 493, 493, 493, 493, 493, 493, 494, 493, 494, 494, 493, 494, 493, 493, 493, 493, 494, 494, 494, 493, 493, 493, 494, 493, 494, 493, 494, 494, 493, 494, 494, 494, 494, 494, 494, 494, 493, 493, 494, 493, 494, 494, 494, 494, 493, 494, 494, 494, 494, 494, 494, 494, 494, 494, 494, 494, 494, 494, 494, 495, 494, 495, 494, 494, 495, 494, 494, 494, 494, 495, 494, 493, 494, 494, 494, 494, 494, 494, 494, 495, 494, 494, 494, 494, 495, 494, 494, 494, 494, 494, 494, 494, 494, 494, 494, 494, 494, 494, 494, 494, 494, 494, 494, 494, 494, 494, 493, 494, 494, 494, 494, 494, 495, 494, 494, 494, 494, 495, 494, 494, 493, 494, 494, 494, 494, 494, 494, 494, 494, 494, 494, 494, 494, 494, 494, 494, 494, 495, 494, 494, 494, 494, 494, 494, 494, 494, 495, 494, 494, 494, 494, 495, 494, 494, 494, 494, 494, 494, 494, 494, 494, 494, 494, 494, 494, 494, 494, 494, 494, 494, 495, 494, 494, 494, 494, 494, 495, 494, 494, 494, 494, 494, 494, 494, 494, 495, 494, 494, 494, 494, 495, 494, 495, 494, 494, 494, 494, 494, 494, 494, 495, 494, 494, 494, 495, 494, 494, 494, 494, 494, 494, 494, 494, 494, 494, 494, 494, 494, 494, 494, 494, 494, 494, 495, 494, 494, 494, 494, 494, 494, 494, 494, 494, 494, 494, 494, 494, 494, 495, 494, 494, 494, 494, 494, 494, 494, 494, 495, 494, 494, 494, 494, 495, 494, 494, 494, 494, 495, 494, 494, 494, 494, 495, 494, 494, 494, 494, 494, 495, 494, 494, 494, 494, 494, 494, 494, 494, 495, 494, 494, 494, 494, 495, 494, 494, 494, 494, 495, 494, 494, 494, 494, 494, 494, 494, 494, 494, 494, 494, 494, 494, 494, 494, 494, 494, 494, 494, 494, 494, 494, 495, 494, 494, 494, 494, 495, 494, 495, 494, 494, 494, 494, 494, 494, 494, 494, 494, 494, 494, 494, 494, 494, 494, 494, 494, 494, 494, 493, 494, 494, 494, 494, 494, 493, 494, 494, 494, 494, 494, 494, 494, 494, 494, 494, 494, 494, 494, 494, 494, 494, 494]"
13,right,"[494, 493, 494, 494, 494, 494, 494, 494, 494, 494, 494, 494, 494, 494, 494, 493, 494, 494, 494, 494, 494, 494, 494, 493, 494, 493, 494, 494, 494, 494, 494, 494, 494, 494, 494, 494, 494, 493, 494, 493, 493, 494, 494, 494, 493, 494, 494, 494, 493, 493, 494, 494, 494, 494, 494, 495, 494, 494, 494, 493, 494, 494, 494, 493, 494, 494, 494, 494, 494, 493, 494, 494, 493, 494, 494, 495, 494, 494, 494, 494, 494, 494, 494, 494, 494, 494, 494, 494, 494, 494, 494, 494, 493, 494, 494, 494, 494, 493, 493, 494, 494, 494, 494, 494, 494, 494, 494, 494, 495, 494, 494, 494, 494, 494, 494, 494, 494, 494, 494, 494, 494, 494, 494, 494, 494, 494, 494, 494, 495, 494, 494, 494, 494, 494, 494, 494, 493, 494, 494, 494, 494, 494, 494, 494, 494, 494, 494, 495, 496, 492, 496, 494, 493, 495, 493, 497, 494, 494, 495, 494, 493, 495, 494, 495, 493, 495, 494, 495, 494, 495, 495, 497, 500, 495, 495, 496, 495, 496, 495, 495, 495, 497, 495, 495, 496, 498, 499, 496, 497, 496, 494, 500, 500, 496, 495, 499, 495, 496, 502, 497, 496, 497, 497, 495, 497, 494, 494, 492, 490, 495, 496, 496, 495, 494, 494, 494, 495, 496, 497, 494, 495, 492, 494, 496, 495, 496, 495, 495, 486, 494, 494, 498, 494, 494, 494, 497, 497, 495, 491, 494, 495, 497, 496, 494, 495, 495, 493, 493, 495, 495, 498, 495, 494, 494, 492, 495, 496, 494, 494, 495, 494, 492, 494, 495, 495, 495, 494, 495, 496, 495, 494, 497, 493, 494, 494, 496, 494, 494, 494, 494, 493, 494, 499, 494, 493, 495, 494, 495, 494, 494, 495, 494, 495, 494, 494, 495, 495, 491, 495, 496, 496, 495, 494, 495, 494, 496, 495, 494, 495, 495, 494, 494, 494, 497, 495, 494, 494, 493, 493, 496, 496, 495, 494, 493, 495, 495, 500, 494, 493, 493, 495, 495, 495, 495, 491, 494, 496, 496, 492, 493, 496, 492, 495, 493, 496, 492, 493, 494, 493, 494, 495, 494, 494, 493, 497, 493, 495, 494, 493, 493, 495, 494, 492, 495, 494, 494, 492, 496, 490, 495, 494, 494, 495, 494, 494, 493, 493, 494, 494, 494, 494, 494, 494, 494, 494, 495, 494, 493, 494, 495, 495, 494, 493, 496, 494, 494, 493, 495, 495, 492, 494, 495, 495, 494, 496, 495, 495, 496, 495, 494, 494, 495, 493, 493, 494, 494, 495, 494, 495, 495, 495, 494, 494, 493, 494, 495, 495, 494, 493, 494, 494, 493, 495, 494, 497, 493, 494, 495, 494, 493, 494, 494, 494, 494, 494, 495, 495, 494, 494, 494, 493, 494, 497, 495, 493, 494, 497, 495, 493, 495, 492, 496, 495, 494, 494, 495, 496, 494, 493, 495, 494, 495, 494, 494, 494, 496, 495, 493, 495, 493, 494, 494, 492, 495, 495, 493, 492, 493, 494, 494, 492, 495, 494, 493, 495, 493, 493, 494, 494, 495, 494, 493, 493, 494, 496, 492, 492, 495, 494, 494, 495, 496, 493, 495, 494, 492, 494, 495, 494, 495, 494, 493, 496, 493, 495, 494, 493, 495, 495, 495, 494, 495, 494, 494, 495, 494, 495, 495, 495, 496, 493, 495, 494, 494, 494, 496, 494, 496, 494, 495, 494, 494, 495, 494, 495, 493, 495, 494, 495, 495, 494, 495, 494, 496, 494, 494, 495, 494, 496, 496, 495, 493, 495, 494, 493, 495, 495]"
14,rest,"[495, 494, 494, 494, 495, 494, 494, 496, 496, 492, 494, 494, 493, 492, 494, 496, 496, 494, 496, 492, 494, 494, 494, 492, 495, 496, 494, 494, 494, 494, 494, 495, 495, 493, 495, 498, 495, 494, 494, 494, 494, 495, 496, 494, 494, 493, 496, 496, 494, 494, 494, 494, 493, 494, 496, 493, 494, 495, 495, 493, 495, 496, 495, 492, 496, 493, 494, 497, 495, 494, 494, 494, 496, 495, 494, 495, 496, 495, 496, 494, 493, 494, 495, 494, 493, 493, 491, 496, 493, 494, 494, 495, 495, 494, 495, 495, 497, 494, 493, 495, 496, 496, 495, 495, 495, 495, 495, 494, 495, 494, 495, 494, 496, 494, 496, 497, 494, 493, 493, 495, 494, 495, 494, 495, 495, 495, 494, 494, 495, 495, 494, 495, 494, 494, 495, 494, 494, 494, 494, 494, 494, 495, 494, 494, 494, 494, 494, 494, 494, 494, 494, 494, 494, 494, 494, 493, 494, 493, 494, 494, 493, 493, 493, 494, 493, 493, 493, 493, 493, 493, 493, 493, 493, 493, 493, 493, 493, 493, 493, 493, 493, 493, 493, 493, 493, 493, 493, 493, 493, 493, 493, 493, 493, 493, 493, 493, 492, 493, 493, 493, 493, 493, 493, 493, 493, 493, 493, 493, 493, 493, 493, 493, 493, 493, 493, 493, 493, 493, 493, 493, 493, 493, 493, 493, 493, 493, 493, 493, 493, 493, 493, 493, 493, 493, 493, 494, 493, 494, 493, 494, 494, 494, 494, 493, 494, 493, 494, 493, 493, 493, 494, 494, 493, 493, 493, 494, 493, 494, 493, 493, 494, 493, 493, 494, 494, 493, 493, 493, 493, 494, 493, 493, 494, 493, 494, 494, 494, 493, 494, 494, 494, 494, 494, 494, 494, 494, 494, 494, 495, 494, 494, 494, 494, 494, 494, 494, 494, 494, 494, 494, 494, 494, 494, 494, 494, 493, 494, 494, 494, 494, 494, 494, 494, 494, 494, 494, 493, 494, 494, 494, 494, 494, 494, 494, 494, 494, 493, 494, 494, 494, 494, 494, 494, 494, 494, 494, 494, 494, 494, 494, 494, 494, 494, 494, 494, 494, 494, 494, 493, 494, 494, 494, 494, 494, 494, 494, 494, 494, 494, 494, 494, 494, 494, 493, 494, 494, 494, 494, 494, 494, 494, 494, 494, 494, 493, 494, 494, 494, 493, 494, 495, 494, 494, 493, 494, 494, 494, 494, 493, 494, 494, 494, 494, 494, 494, 494, 494, 494, 494, 494, 494, 493, 494, 494, 494, 494, 493, 493, 494, 494, 494, 494, 494, 494, 495, 494, 494, 494, 494, 494, 494, 494, 494, 494, 494, 494, 494, 494, 494, 494, 494, 494, 494, 495, 494, 494, 494, 494, 494, 494, 494, 494, 494, 494, 494, 494, 494, 494, 494, 494, 494, 494, 494, 494, 494, 494, 494, 494, 494, 494, 494, 494, 494, 494, 494, 494, 494, 494, 494, 494, 494, 494, 494, 494, 494, 494, 494, 494, 494, 494, 494, 495, 494, 494, 494, 494, 494, 494, 494, 494, 494, 494, 494, 494, 494, 494, 494, 494, 494, 494, 494, 494, 494, 494, 494, 494, 494, 495, 494, 494, 494, 494, 494, 494, 494, 494, 494, 494, 494, 494, 494, 494, 494, 494, 494, 494, 494, 494, 494, 494, 494, 494, 494, 494, 494, 494, 495, 494, 494, 495, 494, 494, 494, 494, 494, 494, 493, 494, 494, 494, 494, 494, 494, 493, 494, 494, 494, 494, 494, 494, 494, 494, 493, 494, 493, 494, 494, 494, 494, 495, 494, 494, 494, 494, 494, 494, 494]"
15,right,"[494, 494, 494, 494, 494, 494, 494, 494, 494, 494, 495, 494, 494, 494, 494, 495, 494, 494, 493, 494, 494, 494, 494, 494, 494, 494, 495, 494, 494, 494, 494, 495, 494, 494, 494, 494, 494, 494, 494, 494, 495, 494, 494, 494, 494, 495, 494, 494, 493, 494, 494, 494, 494, 494, 494, 494, 494, 494, 493, 494, 494, 494, 494, 494, 494, 494, 494, 494, 494, 494, 494, 494, 494, 494, 494, 494, 494, 494, 494, 494, 493, 494, 494, 494, 494, 494, 494, 494, 494, 494, 494, 493, 494, 494, 494, 494, 493, 494, 494, 494, 493, 494, 494, 494, 494, 494, 493, 494, 494, 494, 494, 494, 494, 494, 494, 494, 494, 494, 494, 494, 494, 495, 494, 495, 494, 494, 494, 494, 494, 494, 493, 494, 494, 494, 494, 494, 495, 495, 494, 494, 494, 495, 494, 494, 494, 494, 494, 494, 494, 494, 494, 494, 494, 494, 494, 495, 494, 494, 494, 494, 495, 494, 495, 495, 498, 494, 495, 495, 495, 495, 494, 495, 492, 495, 497, 494, 497, 492, 493, 494, 494, 494, 495, 495, 494, 498, 492, 494, 494, 497, 496, 495, 497, 495, 497, 493, 495, 494, 496, 494, 493, 500, 492, 497, 494, 498, 494, 495, 496, 494, 493, 497, 499, 498, 500, 499, 501, 509, 498, 506, 495, 502, 495, 498, 500, 498, 498, 501, 492, 495, 503, 501, 495, 491, 495, 495, 498, 496, 495, 493, 491, 499, 496, 498, 492, 491, 498, 497, 490, 495, 497, 504, 490, 498, 491, 498, 492, 499, 491, 500, 496, 502, 494, 491, 494, 495, 501, 498, 499, 495, 495, 495, 495, 493, 499, 497, 497, 497, 496, 499, 498, 498, 495, 495, 494, 493, 499, 497, 494, 497, 494, 497, 498, 495, 496, 495, 496, 495, 491, 495, 498, 499, 499, 492, 496, 495, 496, 496, 493, 496, 495, 493, 494, 495, 496, 496, 495, 493, 494, 496, 497, 494, 495, 495, 496, 495, 496, 495, 496, 496, 494, 495, 496, 496, 496, 495, 495, 496, 496, 495, 497, 493, 497, 497, 495, 493, 495, 495, 496, 495, 498, 494, 494, 498, 497, 495, 495, 498, 499, 496, 498, 496, 498, 498, 495, 497, 495, 494, 498, 495, 497, 497, 497, 494, 496, 498, 495, 499, 492, 495, 496, 495, 495, 494, 495, 495, 494, 496, 494, 492, 495, 495, 494, 495, 498, 497, 494, 496, 499, 493, 497, 498, 492, 497, 496, 495, 497, 496, 496, 493, 493, 495, 496, 497, 497, 497, 494, 494, 496, 495, 497, 493, 496, 498, 495, 496, 496, 495, 496, 493, 493, 495, 497, 496, 498, 497, 497, 496, 497, 496, 496, 496, 495, 498, 495, 497, 495, 496, 496, 496, 495, 498, 497, 495, 497, 494, 495, 495, 495, 497, 493, 496, 494, 495, 494, 495, 496, 495, 496, 496, 496, 495, 496, 497, 493, 495, 494, 495, 497, 495, 496, 496, 495, 494, 496, 495, 496, 495, 496, 497, 494, 495, 497, 496, 494, 496, 492, 494, 494, 497, 495, 496, 497, 495, 496, 495, 494, 496, 497, 493, 494, 496, 495, 497, 493, 496, 495, 495, 495, 497, 494, 492, 495, 494, 495, 494, 498, 494, 492, 495, 495, 496, 495, 495, 494, 498, 496, 495, 494, 497, 497, 496, 495, 492, 497, 493, 496, 491, 496, 495, 494, 495, 493, 495, 495, 495, 494, 491, 493, 497, 498, 493, 496, 494, 494, 495, 496, 496, 496, 492, 496, 497, 495, 495, 495, 498, 493]"
16,rest,"[500, 496, 495, 495, 494, 495, 494, 495, 501, 495, 494, 494, 497, 496, 496, 493, 495, 496, 495, 495, 494, 496, 496, 495, 497, 494, 496, 494, 493, 497, 491, 498, 495, 494, 495, 494, 497, 493, 494, 493, 495, 493, 494, 494, 495, 494, 495, 494, 495, 494, 495, 494, 493, 494, 494, 495, 495, 500, 494, 495, 494, 496, 494, 494, 499, 497, 495, 497, 495, 494, 496, 498, 494, 492, 495, 498, 495, 491, 494, 494, 494, 496, 495, 494, 491, 495, 493, 495, 495, 495, 496, 496, 494, 494, 497, 494, 495, 496, 493, 495, 495, 496, 496, 493, 493, 493, 493, 493, 493, 494, 494, 493, 493, 494, 494, 494, 493, 494, 494, 494, 494, 494, 493, 494, 494, 494, 494, 493, 494, 494, 494, 493, 493, 494, 493, 494, 493, 493, 494, 494, 493, 493, 494, 493, 493, 493, 493, 493, 493, 493, 493, 493, 493, 493, 492, 492, 492, 493, 493, 493, 492, 492, 493, 492, 492, 492, 493, 493, 493, 492, 492, 492, 492, 492, 492, 492, 493, 492, 492, 492, 492, 493, 492, 492, 492, 492, 492, 492, 492, 492, 493, 492, 492, 492, 492, 493, 493, 493, 492, 492, 493, 493, 492, 493, 493, 493, 493, 492, 493, 493, 493, 493, 493, 492, 492, 493, 493, 493, 493, 493, 493, 493, 493, 493, 493, 493, 493, 493, 493, 493, 494, 493, 493, 493, 493, 493, 493, 493, 493, 493, 493, 493, 493, 492, 493, 493, 492, 493, 494, 493, 493, 493, 493, 494, 493, 493, 493, 493, 493, 493, 494, 493, 493, 493, 494, 493, 493, 493, 493, 493, 493, 493, 493, 494, 493, 493, 494, 494, 493, 493, 493, 493, 494, 493, 493, 493, 493, 494, 493, 494, 493, 493, 493, 493, 493, 493, 493, 493, 493, 493, 493, 494, 493, 494, 494, 493, 494, 493, 493, 493, 494, 494, 494, 493, 493, 494, 493, 494, 493, 494, 493, 494, 493, 493, 494, 494, 494, 493, 493, 493, 494, 494, 494, 494, 493, 494, 493, 494, 493, 493, 494, 493, 493, 493, 494, 494, 494, 494, 493, 493, 493, 494, 493, 494, 494, 494, 494, 493, 493, 494, 494, 494, 493, 493, 494, 494, 493, 494, 493, 494, 494, 493, 494, 493, 494, 494, 494, 493, 493, 494, 493, 493, 494, 493, 494, 493, 493, 493, 494, 493, 494, 494, 493, 494, 493, 494, 493, 493, 494, 494, 494, 493, 494, 494, 494, 493, 493, 494, 494, 494, 493, 494, 494, 494, 494, 493, 494, 494, 494, 493, 494, 493, 494, 494, 494, 493, 493, 494, 493, 493, 494, 493, 494, 493, 493, 494, 494, 494, 494, 494, 493, 494, 494, 494, 494, 493, 494, 494, 494, 493, 494, 494, 494, 494, 493, 493, 494, 494, 494, 493, 493, 494, 494, 493, 494, 494, 494, 494, 494, 494, 494, 494, 494, 494, 493, 494, 494, 494, 494, 494, 494, 494, 494, 494, 494, 494, 494, 494, 493, 494, 494, 494, 494, 493, 494, 494, 494, 494, 493, 494, 494, 494, 494, 494, 494, 494, 493, 493, 494, 494, 494, 494, 494, 493, 494, 494, 494, 494, 494, 494, 494, 494, 494, 494, 494, 494, 494, 494, 494, 494, 494, 494, 494, 494, 494, 494, 494, 493, 494, 494, 494, 493, 493, 494, 494, 494, 493, 494, 494, 494, 494, 493, 494, 494, 494, 494, 494, 494, 494, 493, 494, 494, 494, 494, 494, 494, 493, 494, 494, 494, 494, 494, 494, 493, 493, 494]"
17,right,"[494, 494, 493, 494, 493, 494, 494, 493, 494, 494, 494, 494, 494, 494, 494, 495, 494, 494, 493, 494, 494, 494, 494, 494, 494, 494, 494, 494, 494, 495, 494, 494, 494, 494, 494, 494, 494, 494, 494, 494, 494, 494, 494, 494, 494, 494, 494, 494, 494, 494, 494, 494, 494, 494, 494, 494, 494, 494, 494, 494, 494, 494, 494, 494, 494, 494, 494, 494, 494, 494, 494, 494, 494, 494, 493, 494, 494, 494, 494, 494, 494, 494, 495, 494, 494, 494, 494, 495, 494, 494, 494, 494, 494, 494, 494, 494, 494, 494, 494, 494, 494, 494, 494, 494, 494, 494, 494, 494, 494, 494, 494, 494, 494, 494, 494, 494, 494, 494, 494, 494, 494, 494, 494, 494, 494, 495, 493, 494, 493, 494, 497, 494, 491, 491, 497, 489, 496, 493, 492, 498, 492, 499, 492, 496, 495, 492, 494, 495, 494, 495, 496, 497, 495, 493, 494, 497, 494, 493, 495, 494, 497, 493, 494, 501, 497, 494, 500, 495, 497, 496, 498, 497, 498, 492, 501, 501, 495, 495, 496, 496, 496, 499, 494, 494, 497, 495, 492, 495, 497, 494, 493, 497, 497, 496, 496, 495, 497, 491, 495, 496, 495, 497, 495, 494, 493, 495, 494, 493, 497, 497, 498, 494, 497, 497, 496, 496, 495, 499, 495, 495, 493, 497, 495, 494, 495, 496, 499, 496, 493, 495, 493, 496, 494, 493, 495, 492, 496, 495, 496, 498, 493, 491, 497, 493, 496, 494, 496, 495, 496, 499, 495, 494, 498, 494, 495, 491, 495, 496, 496, 497, 496, 495, 500, 496, 497, 494, 495, 495, 499, 494, 494, 493, 495, 500, 494, 496, 495, 497, 495, 496, 495, 495, 494, 496, 494, 496, 493, 495, 495, 494, 496, 495, 497, 497, 495, 495, 496, 494, 492, 496, 496, 497, 496, 495, 495, 496, 496, 495, 497, 495, 494, 495, 495, 497, 496, 495, 496, 494, 494, 493, 492, 495, 493, 495, 494, 496, 495, 496, 499, 495, 495, 494, 496, 497, 495, 495, 496, 495, 497, 497, 496, 493, 493, 495, 495, 494, 498, 495, 497, 495, 495, 498, 495, 495, 497, 496, 493, 497, 494, 495, 494, 495, 495, 496, 496, 495, 495, 496, 496, 494, 494, 494, 493, 496, 495, 495, 493, 496, 494, 493, 494, 493, 494, 495, 493, 495, 497, 493, 495, 495, 493, 495, 496, 497, 494, 496, 496, 494, 495, 496, 495, 495, 495, 496, 492, 495, 496, 495, 495, 493, 495, 494, 494, 495, 495, 494, 496, 495, 496, 495, 495, 495, 495, 494, 495, 497, 494, 497, 494, 496, 493, 496, 494, 495, 496, 496, 494, 496, 495, 493, 495, 495, 493, 495, 493, 495, 495, 494, 495, 497, 497, 495, 496, 493, 494, 494, 495, 496, 495, 497, 496, 495, 494, 496, 497, 493, 495, 495, 496, 495, 494, 493, 495, 496, 497, 495, 495, 493, 495, 494, 495, 495, 494, 495, 494, 495, 497, 494, 497, 494, 495, 495, 495, 498, 492, 495, 495, 495, 496, 493, 495, 494, 495, 495, 496, 495, 497, 494, 494, 495, 492, 498, 493, 496, 495, 495, 494, 497, 496, 493, 496, 496, 492, 495, 496, 493, 496, 495, 492, 493, 494, 493, 495, 495, 494, 495, 494, 493, 495, 495, 495, 495, 495, 493, 494, 495, 495, 494, 493, 495, 495, 493, 495, 495, 494, 495, 494, 495, 495, 495, 494, 494, 494, 495, 494, 495, 493, 495, 495, 497, 495, 492, 496, 494, 494, 494, 493]"
18,rest,"[494, 493, 494, 494, 497, 494, 495, 495, 494, 495, 493, 497, 495, 496, 495, 495, 494, 495, 493, 494, 495, 497, 495, 494, 495, 492, 495, 495, 496, 493, 494, 495, 495, 492, 492, 493, 493, 496, 494, 494, 495, 495, 496, 495, 494, 494, 493, 495, 493, 495, 494, 494, 498, 495, 493, 494, 494, 495, 494, 497, 496, 496, 493, 493, 493, 494, 492, 496, 495, 493, 494, 495, 493, 494, 495, 494, 495, 495, 494, 495, 490, 492, 495, 495, 494, 496, 493, 494, 494, 495, 496, 497, 494, 494, 494, 498, 495, 495, 495, 496, 496, 494, 495, 494, 495, 494, 494, 494, 495, 494, 494, 494, 494, 495, 494, 494, 494, 494, 494, 494, 494, 493, 494, 494, 495, 494, 494, 494, 494, 494, 494, 494, 494, 494, 494, 494, 494, 494, 494, 493, 494, 493, 494, 493, 494, 494, 493, 494, 493, 493, 493, 493, 493, 493, 493, 493, 494, 493, 493, 493, 493, 494, 493, 494, 493, 493, 493, 493, 493, 493, 493, 493, 493, 493, 493, 493, 493, 493, 493, 493, 493, 493, 493, 493, 493, 493, 494, 493, 493, 492, 493, 493, 492, 493, 493, 493, 493, 493, 493, 493, 493, 493, 493, 493, 493, 493, 493, 493, 493, 493, 493, 493, 493, 493, 493, 493, 493, 493, 493, 494, 493, 493, 493, 493, 494, 493, 493, 493, 493, 493, 494, 493, 494, 493, 494, 493, 493, 494, 494, 494, 493, 493, 492, 494, 494, 493, 493, 493, 494, 494, 493, 493, 493, 494, 493, 494, 493, 493, 493, 493, 494, 493, 494, 493, 494, 493, 494, 494, 493, 494, 493, 493, 494, 494, 493, 493, 494, 494, 494, 493, 493, 494, 494, 494, 494, 493, 494, 494, 493, 494, 493, 494, 494, 493, 493, 494, 494, 494, 494, 494, 493, 494, 494, 493, 494, 493, 494, 493, 493, 493, 493, 494, 494, 494, 493, 494, 494, 494, 493, 494, 494, 494, 494, 494, 493, 494, 494, 494, 493, 494, 494, 494, 493, 494, 494, 494, 494, 494, 494, 493, 494, 494, 494, 493, 494, 494, 494, 494, 494, 494, 494, 494, 494, 494, 494, 494, 494, 494, 494, 494, 494, 494, 494, 494, 494, 494, 494, 494, 494, 494, 494, 494, 494, 495, 494, 494, 494, 494, 495, 494, 494, 494, 494, 495, 495, 495, 494, 494, 495, 494, 494, 492, 494, 495, 495, 494, 495, 495, 495, 494, 495, 494, 495, 494, 495, 495, 495, 495, 495, 495, 494, 495, 496, 495, 495, 495, 495, 495, 495, 495, 495, 495, 495, 495, 495, 495, 496, 495, 495, 495, 495, 496, 495, 495, 495, 496, 496, 496, 495, 496, 496, 495, 496, 495, 496, 495, 496, 496, 496, 496, 496, 496, 496, 496, 496, 496, 496, 496, 496, 496, 496, 496, 496, 496, 496, 496, 496, 496, 496, 496, 496, 496, 496, 496, 496, 496, 496, 496, 496, 496, 496, 496, 496, 496, 497, 496, 496, 496, 496, 496, 496, 496, 496, 496, 496, 497, 496, 496, 496, 497, 496, 496, 496, 496, 497, 496, 496, 496, 496, 497, 496, 496, 496, 497, 497, 497, 497, 496, 497, 497, 496, 497, 497, 498, 497, 497, 497, 497, 497, 497, 497, 497, 497, 497, 497, 497, 498, 498, 498, 498, 497, 497, 498, 498, 497, 498, 498, 498, 498, 497, 498, 497, 499, 498, 498, 498, 497, 499, 498, 499, 498, 499, 499, 499, 499, 498, 499, 499, 499, 498, 498, 500, 499, 499, 499, 499]"
19,right,"[500, 500, 499, 499, 500, 499, 500, 499, 499, 499, 499, 500, 499, 499, 500, 500, 499, 499, 499, 499, 500, 499, 500, 499, 500, 500, 499, 499, 499, 500, 499, 499, 499, 499, 499, 499, 499, 499, 499, 499, 499, 498, 499, 499, 498, 498, 498, 498, 499, 498, 498, 498, 498, 498, 498, 498, 497, 497, 498, 498, 497, 497, 497, 497, 498, 497, 497, 498, 497, 497, 497, 497, 497, 497, 497, 498, 497, 498, 497, 497, 497, 497, 498, 497, 497, 497, 497, 497, 497, 498, 497, 497, 497, 497, 497, 497, 497, 497, 497, 496, 497, 497, 497, 497, 496, 497, 497, 496, 496, 496, 496, 496, 496, 496, 495, 495, 496, 496, 496, 496, 495, 496, 495, 495, 495, 497, 495, 496, 494, 495, 497, 495, 493, 494, 495, 493, 495, 493, 493, 495, 495, 494, 495, 496, 497, 494, 497, 495, 497, 496, 496, 496, 495, 494, 495, 494, 495, 500, 495, 492, 494, 496, 495, 496, 495, 495, 495, 499, 494, 492, 497, 496, 495, 495, 497, 496, 500, 494, 498, 498, 498, 498, 495, 496, 495, 498, 497, 490, 490, 498, 494, 506, 490, 495, 493, 495, 497, 494, 498, 493, 499, 498, 497, 496, 494, 495, 495, 501, 495, 496, 500, 504, 495, 498, 498, 496, 499, 496, 497, 496, 493, 495, 496, 491, 498, 502, 500, 508, 494, 496, 499, 498, 501, 497, 496, 494, 497, 497, 497, 493, 493, 495, 495, 495, 497, 502, 497, 497, 498, 494, 499, 501, 495, 493, 493, 495, 499, 497, 501, 500, 497, 496, 499, 496, 498, 497, 493, 507, 499, 499, 495, 499, 496, 501, 496, 498, 495, 497, 500, 508, 496, 493, 497, 494, 495, 500, 500, 504, 491, 499, 496, 500, 497, 499, 499, 497, 497, 502, 497, 496, 499, 496, 497, 495, 494, 503, 500, 499, 493, 487, 495, 496, 499, 497, 497, 496, 495, 499, 499, 493, 494, 496, 495, 492, 500, 498, 495, 494, 496, 494, 495, 498, 494, 497, 495, 501, 496, 495, 493, 494, 497, 494, 493, 496, 495, 496, 492, 495, 495, 496, 494, 496, 494, 493, 494, 497, 494, 492, 486, 495, 497, 495, 494, 492, 491, 495, 495, 495, 495, 495, 493, 496, 494, 493, 495, 494, 492, 494, 492, 495, 494, 495, 495, 497, 491, 495, 496, 495, 497, 493, 494, 495, 495, 495, 493, 500, 497, 495, 495, 492, 494, 494, 495, 496, 494, 495, 494, 492, 494, 495, 497, 498, 492, 493, 492, 493, 496, 496, 491, 496, 496, 494, 494, 493, 498, 496, 490, 493, 495, 495, 498, 493, 496, 494, 500, 500, 492, 492, 499, 495, 495, 497, 489, 491, 498, 491, 499, 495, 494, 495, 495, 495, 497, 493, 493, 496, 494, 497, 497, 494, 491, 494, 493, 500, 495, 492, 494, 494, 495, 495, 495, 493, 493, 493, 495, 494, 493, 493, 494, 494, 492, 493, 494, 492, 493, 494, 497, 495, 494, 494, 495, 490, 495, 492, 492, 493, 495, 494, 494, 497, 493, 493, 493, 490, 494, 493, 494, 494, 490, 493, 495, 498, 492, 495, 493, 495, 489, 495, 493, 493, 495, 493, 494, 491, 495, 493, 493, 491, 492, 495, 491, 496, 491, 492, 494, 495, 492, 495, 493, 490, 496, 488, 492, 495, 493, 494, 494, 496, 487, 491, 494, 497, 498, 494, 493, 496, 493, 492, 491, 497, 496, 496, 496, 493, 494, 496, 494, 496, 494, 493, 493, 493, 493, 493, 493, 497, 495]"
20,rest,"[493, 493, 495, 496, 496, 493, 492, 497, 492, 493, 495, 495, 495, 492, 496, 493, 495, 492, 497, 496, 493, 494, 499, 495, 493, 494, 495, 496, 493, 495, 492, 496, 494, 496, 493, 496, 493, 494, 494, 494, 496, 495, 493, 493, 493, 495, 497, 492, 495, 494, 494, 494, 495, 495, 494, 494, 494, 493, 493, 495, 488, 494, 493, 496, 495, 494, 495, 493, 494, 495, 494, 499, 496, 494, 497, 495, 495, 492, 493, 495, 492, 494, 494, 492, 493, 497, 493, 494, 496, 493, 494, 493, 493, 494, 493, 492, 492, 493, 493, 494, 493, 493, 493, 493, 494, 493, 494, 492, 493, 493, 493, 492, 493, 494, 493, 493, 493, 493, 493, 493, 493, 493, 493, 493, 493, 493, 493, 493, 493, 493, 493, 492, 493, 493, 493, 492, 492, 492, 492, 493, 492, 492, 492, 492, 493, 492, 493, 493, 492, 492, 492, 492, 492, 492, 492, 492, 492, 492, 492, 492, 492, 493, 492, 492, 492, 492, 493, 492, 492, 492, 492, 492, 492, 493, 492, 493, 493, 493, 492, 492, 493, 492, 492, 492, 492, 493, 492, 493, 492, 492, 493, 493, 492, 492, 493, 492, 493, 492, 493, 493, 493, 492, 493, 493, 493, 493, 492, 493, 492, 493, 493, 493, 493, 493, 493, 493, 493, 493, 493, 493, 493, 492, 493, 493, 493, 493, 493, 493, 493, 493, 493, 493, 493, 493, 493, 493, 493, 493, 493, 493, 493, 493, 493, 493, 493, 493, 492, 493, 493, 493, 493, 493, 493, 493, 493, 493, 493, 493, 493, 493, 493, 493, 493, 493, 493, 493, 493, 493, 493, 493, 493, 493, 494, 493, 493, 493, 493, 493, 493, 493, 493, 494, 493, 493, 493, 493, 494, 493, 493, 493, 493, 494, 493, 493, 493, 494, 493, 493, 493, 493, 493, 493, 493, 493, 493, 494, 494, 493, 493, 493, 493, 493, 493, 493, 493, 493, 494, 493, 493, 493, 493, 493, 493, 493, 493, 494, 493, 493, 493, 493, 493, 493, 493, 493, 494, 494, 494, 493, 493, 494, 493, 494, 493, 493, 494, 494, 493, 493, 494, 493, 493, 494, 493, 493, 494, 493, 493, 494, 494, 494, 493, 493, 494, 494, 494, 494, 494, 493, 494, 494, 493, 494, 494, 494, 494, 494, 494, 494, 494, 494, 494, 493, 494, 494, 494, 494, 494, 494, 494, 494, 494, 494, 494, 494, 494, 494, 494, 495, 494, 494, 494, 494, 494, 494, 494, 494, 494, 494, 494, 494, 494, 494, 495, 494, 494, 494, 495, 494, 494, 494, 494, 495, 495, 494, 494, 494, 494, 494, 494, 495, 494, 494, 494, 494, 494, 494, 494, 494, 494, 494, 495, 494, 495, 495, 494, 495, 494, 494, 495, 494, 495, 494, 494, 494, 495, 495, 495, 494, 495, 494, 495, 494, 495, 495, 495, 495, 494, 495, 495, 495, 496, 495, 495, 495, 495, 495, 495, 495, 494, 495, 495, 495, 494, 495, 496, 495, 495, 495, 495, 495, 495, 495, 495, 495, 495, 495, 495, 495, 496, 495, 495, 495, 495, 496, 495, 494, 495, 495, 495, 495, 495, 495, 495, 495, 495, 495, 495, 495, 495, 495, 495, 495, 495, 495, 495, 495, 495, 495, 495, 495, 495, 494, 495, 495, 495, 495, 495, 495, 495, 495, 494, 495, 495, 495, 495, 496, 495, 495, 495, 495, 495, 496, 495, 495, 495, 495, 495, 495, 495, 495, 495, 495, 495, 495, 495, 495, 495, 495, 495, 495, 495, 495, 495, 495, 495, 495, 495]"
21,right,"[494, 495, 494, 495, 495, 494, 495, 495, 495, 494, 495, 495, 495, 495, 494, 495, 494, 495, 494, 495, 495, 494, 494, 495, 495, 494, 495, 495, 495, 494, 494, 494, 494, 494, 495, 494, 494, 494, 495, 495, 495, 494, 494, 495, 494, 495, 494, 493, 494, 494, 494, 494, 495, 494, 494, 494, 495, 494, 494, 495, 494, 495, 495, 495, 494, 494, 495, 494, 494, 494, 494, 494, 495, 494, 494, 494, 495, 494, 494, 494, 494, 494, 495, 494, 495, 495, 495, 494, 495, 495, 494, 495, 494, 494, 495, 494, 494, 494, 494, 494, 495, 494, 494, 494, 494, 495, 494, 494, 494, 494, 494, 494, 494, 494, 495, 494, 494, 494, 494, 495, 494, 494, 493, 495, 495, 494, 494, 494, 494, 495, 495, 495, 494, 495, 494, 494, 497, 494, 495, 497, 496, 493, 494, 494, 495, 493, 496, 494, 495, 494, 494, 495, 492, 496, 492, 495, 496, 493, 496, 494, 495, 493, 494, 495, 495, 495, 494, 495, 497, 496, 493, 494, 495, 496, 494, 495, 494, 495, 495, 496, 492, 495, 495, 498, 492, 500, 493, 496, 496, 495, 496, 497, 496, 497, 496, 497, 498, 495, 497, 496, 497, 503, 496, 495, 497, 494, 495, 495, 497, 497, 498, 496, 495, 496, 495, 495, 496, 494, 496, 497, 494, 494, 501, 494, 495, 494, 496, 500, 494, 495, 499, 499, 494, 495, 495, 498, 494, 493, 498, 498, 495, 496, 495, 495, 495, 496, 496, 495, 499, 497, 496, 494, 497, 494, 495, 496, 496, 495, 496, 497, 495, 496, 494, 496, 493, 495, 496, 494, 497, 493, 494, 496, 496, 495, 494, 495, 499, 496, 495, 496, 498, 495, 491, 499, 492, 495, 495, 495, 494, 494, 496, 497, 493, 495, 496, 495, 496, 497, 497, 495, 494, 495, 495, 496, 494, 494, 496, 495, 495, 496, 497, 495, 494, 493, 497, 495, 496, 498, 496, 495, 493, 495, 495, 493, 494, 498, 497, 495, 496, 496, 495, 495, 495, 495, 496, 494, 495, 495, 495, 495, 495, 496, 493, 495, 493, 495, 496, 494, 492, 495, 494, 494, 494, 495, 495, 496, 496, 496, 492, 495, 495, 495, 495, 495, 495, 495, 496, 495, 494, 494, 494, 494, 494, 494, 494, 494, 493, 495, 493, 495, 494, 495, 495, 495, 496, 495, 496, 494, 496, 494, 493, 496, 495, 495, 493, 495, 494, 493, 493, 495, 495, 493, 497, 495, 496, 494, 497, 494, 495, 497, 496, 495, 494, 495, 490, 495, 495, 495, 493, 496, 495, 495, 497, 495, 494, 495, 495, 494, 495, 494, 496, 493, 495, 494, 496, 494, 494, 495, 495, 495, 494, 496, 494, 494, 495, 492, 495, 497, 494, 495, 495, 495, 494, 495, 494, 491, 494, 495, 495, 496, 495, 496, 493, 494, 496, 493, 496, 495, 495, 495, 495, 495, 496, 495, 495, 496, 494, 495, 494, 495, 494, 494, 494, 494, 495, 497, 493, 495, 495, 494, 495, 495, 496, 495, 494, 495, 496, 496, 495, 496, 495, 496, 494, 496, 495, 494, 494, 494, 495, 494, 495, 495, 496, 495, 497, 492, 495, 496, 495, 495, 495, 497, 494, 495, 496, 494, 494, 496, 495, 495, 494, 495, 494, 494, 492, 495, 495, 495, 494, 495, 495, 496, 495, 495, 496, 493, 494, 496, 494, 496, 494, 495, 494, 494, 495, 494, 494, 495, 495, 494, 494, 492, 495, 495, 496, 496, 494, 496, 493, 493, 494, 494, 496, 494, 494, 496, 496]"
22,rest,"[496, 494, 495, 497, 493, 495, 495, 494, 496, 495, 495, 495, 495, 496, 494, 494, 492, 494, 496, 494, 496, 493, 495, 494, 495, 497, 490, 496, 495, 496, 494, 494, 496, 495, 499, 494, 495, 493, 495, 497, 495, 495, 494, 494, 493, 494, 495, 494, 495, 494, 497, 495, 495, 496, 495, 495, 495, 494, 495, 495, 492, 495, 496, 494, 497, 495, 493, 495, 495, 496, 494, 495, 494, 495, 494, 493, 495, 497, 496, 494, 494, 494, 495, 496, 491, 494, 494, 497, 496, 495, 495, 493, 496, 495, 496, 494, 496, 494, 495, 495, 495, 494, 494, 495, 495, 494, 495, 495, 494, 494, 495, 495, 494, 495, 494, 494, 495, 494, 494, 495, 494, 494, 494, 494, 494, 494, 495, 494, 494, 494, 494, 495, 494, 494, 494, 494, 494, 494, 494, 494, 494, 494, 494, 494, 493, 494, 493, 494, 493, 493, 493, 493, 494, 493, 493, 493, 493, 493, 493, 494, 493, 493, 493, 493, 494, 493, 493, 493, 493, 493, 494, 493, 493, 493, 493, 493, 493, 494, 493, 494, 494, 493, 493, 494, 494, 493, 493, 494, 494, 493, 493, 493, 493, 494, 493, 494, 494, 494, 494, 493, 494, 494, 494, 494, 494, 494, 493, 494, 494, 494, 494, 494, 495, 494, 494, 494, 494, 494, 494, 494, 494, 494, 494, 495, 494, 494, 494, 495, 495, 494, 494, 494, 495, 494, 494, 494, 494, 495, 494, 494, 494, 495, 495, 494, 494, 494, 494, 494, 494, 494, 494, 495, 494, 494, 494, 494, 494, 494, 494, 494, 494, 495, 495, 495, 494, 495, 494, 495, 494, 495, 495, 494, 494, 494, 494, 494, 494, 494, 494, 495, 494, 494, 494, 495, 494, 495, 495, 494, 494, 495, 495, 494, 494, 494, 494, 494, 494, 494, 494, 495, 494, 494, 495, 494, 495, 494, 495, 494, 494, 494, 494, 494, 494, 494, 495, 494, 495, 495, 495, 495, 494, 495, 495, 495, 495, 495, 495, 495, 495, 495, 495, 495, 495, 495, 495, 495, 495, 495, 496, 496, 495, 496, 496, 496, 496, 496, 495, 496, 496, 496, 496, 496, 496, 496, 496, 496, 495, 496, 496, 496, 496, 496, 496, 496, 496, 496, 495, 496, 496, 496, 496, 496, 496, 496, 496, 496, 496, 496, 496, 496, 496, 497, 497, 496, 496, 496, 497, 497, 497, 497, 496, 497, 497, 497, 497, 496, 497, 497, 498, 497, 497, 498, 498, 497, 498, 498, 498, 498, 498, 498, 499, 498, 499, 499, 498, 499, 499, 499, 499, 499, 499, 499, 499, 499, 499, 499, 500, 499, 500, 500, 500, 500, 500, 500, 500, 500, 500, 500, 500, 500, 500, 500, 500, 500, 500, 500, 500, 500, 499, 500, 499, 500, 500, 500, 499, 499, 499, 499, 500, 499, 499, 499, 499, 500, 499, 499, 499, 498, 499, 499, 499, 498, 498, 499, 499, 499, 499, 499, 499, 499, 499, 499, 499, 499, 499, 499, 499, 499, 498, 498, 498, 498, 498, 498, 498, 499, 498, 498, 498, 497, 497, 497, 498, 497, 498, 497, 497, 498, 498, 498, 497, 498, 498, 497, 498, 497, 498, 498, 498, 497, 498, 498, 498, 498, 497, 497, 497, 498, 497, 497, 497, 497, 497, 497, 497, 497, 497, 496, 497, 496, 497, 497, 496, 497, 497, 497, 497, 496, 497, 497, 497, 496, 496, 496, 496, 497, 497, 497, 496, 497, 497, 497, 497, 496, 497, 497, 497, 497, 497, 498, 497, 497, 497, 496, 497, 497]"
23,right,"[496, 497, 497, 497, 497, 497, 496, 496, 496, 496, 496, 496, 496, 496, 495, 496, 495, 496, 496, 496, 496, 496, 496, 496, 495, 496, 495, 496, 496, 496, 496, 497, 496, 496, 496, 496, 495, 496, 496, 496, 496, 496, 496, 496, 496, 496, 497, 496, 496, 496, 496, 496, 496, 496, 495, 496, 496, 496, 495, 495, 496, 496, 496, 495, 495, 496, 496, 495, 495, 496, 496, 496, 496, 496, 495, 496, 496, 495, 495, 495, 495, 495, 495, 496, 495, 495, 495, 495, 495, 495, 496, 495, 495, 495, 495, 496, 496, 495, 496, 496, 496, 496, 495, 496, 496, 496, 496, 495, 495, 495, 496, 495, 495, 495, 496, 495, 496, 496, 495, 496, 495, 495, 496, 495, 496, 495, 499, 494, 495, 496, 498, 495, 497, 494, 497, 495, 492, 497, 497, 496, 493, 493, 495, 494, 492, 494, 495, 495, 497, 494, 493, 497, 496, 494, 497, 496, 495, 498, 495, 495, 502, 494, 495, 498, 496, 497, 497, 497, 496, 497, 496, 496, 496, 496, 494, 496, 497, 500, 498, 494, 495, 500, 494, 496, 498, 497, 496, 491, 496, 501, 493, 498, 498, 498, 495, 493, 497, 493, 497, 498, 494, 495, 493, 495, 496, 496, 497, 496, 494, 495, 494, 496, 495, 492, 496, 494, 499, 495, 498, 496, 498, 499, 500, 493, 494, 499, 497, 497, 496, 497, 501, 500, 497, 494, 497, 496, 495, 496, 493, 496, 493, 497, 496, 495, 496, 494, 499, 494, 498, 494, 495, 494, 495, 498, 495, 495, 496, 494, 497, 492, 495, 494, 497, 495, 495, 495, 493, 494, 500, 494, 496, 494, 494, 495, 495, 497, 494, 495, 494, 498, 496, 493, 495, 497, 494, 494, 493, 499, 495, 496, 495, 493, 495, 496, 496, 495, 492, 495, 496, 493, 495, 495, 494, 497, 498, 492, 494, 498, 493, 493, 495, 496, 495, 496, 496, 494, 494, 495, 494, 494, 494, 494, 495, 492, 495, 495, 494, 494, 495, 491, 495, 495, 495, 493, 493, 496, 496, 495, 495, 496, 495, 495, 494, 494, 496, 495, 497, 495, 493, 494, 495, 495, 495, 494, 494, 495, 498, 495, 493, 495, 495, 496, 494, 494, 493, 495, 494, 494, 494, 493, 496, 494, 493, 495, 493, 495, 494, 494, 494, 495, 494, 494, 495, 496, 493, 492, 496, 494, 493, 495, 493, 494, 494, 495, 493, 493, 495, 495, 493, 494, 493, 495, 493, 495, 494, 495, 495, 492, 494, 491, 493, 494, 493, 496, 495, 495, 492, 494, 493, 495, 492, 491, 493, 494, 494, 494, 493, 494, 495, 492, 495, 493, 491, 493, 494, 496, 492, 492, 493, 493, 494, 494, 494, 491, 491, 493, 494, 493, 493, 491, 494, 494, 495, 494, 494, 494, 493, 494, 494, 494, 494, 494, 495, 492, 494, 493, 494, 496, 494, 494, 493, 494, 492, 493, 494, 494, 492, 494, 494, 493, 492, 494, 494, 493, 495, 493, 493, 493, 492, 494, 495, 493, 493, 493, 494, 491, 491, 496, 493, 494, 493, 494, 493, 496, 494, 496, 492, 493, 490, 491, 493, 495, 494, 492, 496, 491, 493, 494, 491, 494, 494, 493, 493, 493, 493, 493, 492, 493, 494, 494, 494, 494, 492, 493, 493, 494, 493, 493, 496, 494, 495, 494, 493, 493, 492, 494, 495, 492, 493, 492, 492, 492, 497, 495, 491, 492, 493, 492, 493, 495, 493, 493, 495, 493, 493, 494, 495, 495, 492, 494, 495, 495, 493, 493, 492, 494, 491]"
24,rest,"[493, 494, 494, 491, 494, 494, 491, 494, 494, 492, 493, 494, 493, 494, 496, 495, 493, 495, 495, 494, 493, 493, 493, 494, 492, 494, 494, 492, 493, 492, 494, 491, 494, 495, 493, 494, 493, 494, 494, 491, 496, 494, 494, 494, 494, 495, 496, 493, 493, 493, 493, 493, 493, 493, 490, 492, 493, 493, 493, 493, 493, 494, 493, 493, 495, 493, 494, 493, 491, 493, 493, 492, 493, 493, 493, 494, 493, 494, 494, 495, 494, 494, 492, 492, 494, 492, 493, 494, 492, 495, 492, 493, 493, 494, 493, 495, 495, 494, 495, 493, 490, 496, 493, 493, 492, 493, 493, 493, 493, 493, 493, 493, 493, 493, 493, 493, 493, 493, 493, 493, 494, 492, 493, 493, 494, 494, 493, 493, 493, 493, 493, 492, 493, 492, 493, 493, 493, 493, 493, 492, 492, 493, 493, 493, 494, 493, 493, 492, 492, 493, 493, 493, 493, 492, 493, 493, 493, 493, 492, 492, 493, 493, 492, 492, 493, 492, 493, 492, 493, 493, 492, 492, 492, 493, 493, 492, 493, 492, 493, 493, 493, 492, 492, 493, 493, 493, 492, 492, 493, 493, 493, 492, 492, 493, 493, 493, 493, 493, 493, 493, 493, 493, 493, 493, 492, 493, 493, 493, 493, 493, 493, 493, 493, 493, 493, 493, 493, 493, 493, 493, 493, 493, 494, 493, 493, 493, 493, 493, 493, 493, 493, 493, 493, 493, 493, 493, 493, 493, 493, 493, 493, 493, 493, 493, 492, 493, 493, 493, 493, 493, 493, 493, 494, 493, 493, 494, 494, 493, 493, 493, 494, 493, 493, 493, 493, 494, 494, 493, 494, 493, 494, 493, 494, 493, 493, 494, 493, 493, 494, 494, 493, 494, 493, 493, 494, 493, 494, 494, 494, 494, 494, 494, 494, 493, 494, 493, 494, 494, 494, 493, 493, 495, 494, 494, 494, 494, 492, 495, 494, 494, 493, 494, 494, 494, 494, 493, 493, 494, 494, 493, 494, 493, 493, 493, 493, 494, 494, 493, 494, 494, 493, 493, 494, 493, 494, 493, 493, 493, 494, 493, 493, 493, 494, 494, 494, 494, 493, 494, 494, 493, 493, 494, 494, 494, 494, 493, 493, 494, 494, 493, 494, 494, 494, 494, 494, 494, 494, 493, 493, 494, 493, 494, 494, 493, 494, 493, 494, 494, 494, 494, 493, 494, 493, 494, 493, 494, 493, 494, 494, 494, 494, 494, 493, 494, 494, 494, 494, 494, 493, 494, 494, 495, 493, 493, 494, 493, 494, 494, 493, 493, 494, 494, 493, 494, 494, 494, 494, 494, 494, 494, 494, 494, 493, 493, 494, 494, 494, 494, 494, 494, 494, 494, 494, 494, 494, 494, 494, 494, 494, 494, 494, 494, 494, 494, 494, 494, 494, 494, 494, 494, 494, 494, 494, 494, 494, 494, 494, 494, 494, 494, 494, 494, 493, 494, 494, 494, 494, 494, 494, 494, 493, 494, 494, 494, 494, 494, 493, 494, 493, 493, 494, 494, 494, 494, 494, 494, 494, 494, 494, 494, 494, 494, 494, 494, 494, 494, 494, 494, 494, 494, 494, 495, 494, 494, 494, 494, 495, 494, 494, 494, 494, 494, 494, 494, 494, 494, 494, 494, 494, 494, 494, 495, 495, 494, 494, 495, 495, 494, 494, 494, 494, 494, 494, 494, 494, 494, 494, 494, 494, 494, 494, 494, 494, 494, 494, 494, 494, 494, 494, 494, 494, 494, 494, 494, 495, 494, 494, 494, 494, 494, 494, 494, 494, 494, 494, 494, 494, 494, 493, 494, 494, 494, 494, 494, 494, 494]"
25,right,"[494, 494, 494, 494, 494, 494, 494, 494, 494, 494, 494, 494, 494, 494, 494, 494, 494, 494, 494, 494, 494, 494, 494, 494, 494, 494, 494, 494, 494, 494, 494, 495, 494, 494, 494, 494, 495, 494, 494, 494, 494, 494, 494, 494, 494, 494, 494, 494, 494, 493, 494, 494, 494, 494, 494, 494, 494, 494, 494, 494, 494, 494, 494, 494, 494, 494, 494, 494, 493, 494, 495, 494, 494, 494, 494, 494, 494, 494, 493, 494, 494, 494, 494, 493, 495, 494, 494, 494, 494, 494, 494, 494, 494, 493, 494, 494, 494, 494, 494, 494, 494, 494, 494, 493, 495, 494, 494, 494, 494, 494, 494, 494, 494, 494, 494, 494, 494, 493, 494, 494, 494, 493, 493, 495, 493, 496, 493, 492, 495, 494, 494, 493, 494, 494, 494, 494, 495, 496, 493, 494, 494, 494, 495, 494, 496, 494, 495, 496, 494, 495, 495, 493, 494, 494, 495, 493, 494, 495, 491, 493, 494, 494, 495, 494, 494, 495, 495, 492, 494, 497, 494, 495, 493, 495, 495, 496, 495, 497, 495, 493, 495, 494, 494, 496, 493, 500, 494, 494, 497, 492, 494, 496, 495, 501, 497, 502, 495, 495, 496, 494, 496, 497, 496, 496, 495, 498, 491, 495, 494, 496, 495, 498, 496, 497, 494, 497, 494, 498, 498, 495, 494, 497, 489, 496, 496, 494, 498, 493, 497, 496, 497, 497, 495, 496, 496, 494, 495, 494, 496, 495, 497, 496, 493, 490, 495, 495, 494, 494, 497, 496, 496, 495, 490, 495, 495, 493, 503, 492, 494, 495, 493, 494, 496, 497, 494, 495, 496, 494, 495, 496, 498, 494, 495, 492, 495, 495, 495, 494, 496, 497, 498, 494, 496, 493, 495, 494, 497, 496, 494, 494, 495, 492, 495, 494, 495, 495, 495, 494, 497, 495, 494, 494, 495, 494, 495, 494, 496, 494, 494, 498, 497, 494, 493, 495, 494, 493, 495, 495, 499, 492, 495, 494, 494, 495, 493, 494, 493, 497, 496, 493, 496, 492, 495, 494, 495, 495, 495, 494, 495, 494, 495, 495, 495, 498, 495, 493, 496, 493, 494, 495, 495, 494, 494, 494, 494, 495, 496, 495, 493, 494, 495, 496, 494, 496, 493, 495, 495, 495, 492, 499, 493, 494, 494, 493, 493, 494, 495, 494, 495, 494, 495, 494, 495, 496, 495, 493, 493, 496, 495, 494, 496, 495, 495, 494, 495, 496, 494, 494, 496, 497, 494, 494, 494, 495, 495, 494, 493, 495, 495, 493, 495, 497, 495, 495, 493, 492, 494, 495, 492, 495, 494, 495, 496, 494, 494, 495, 495, 495, 494, 495, 496, 494, 494, 496, 495, 494, 494, 495, 495, 494, 494, 495, 495, 494, 495, 495, 495, 494, 494, 494, 495, 494, 493, 494, 493, 495, 494, 494, 494, 494, 493, 494, 493, 492, 494, 495, 496, 493, 494, 494, 493, 494, 496, 494, 494, 495, 493, 495, 495, 495, 495, 493, 496, 494, 494, 491, 495, 495, 496, 497, 497, 495, 495, 496, 495, 494, 495, 495, 494, 495, 495, 490, 494, 496, 495, 493, 495, 494, 495, 492, 495, 494, 495, 495, 495, 495, 495, 494, 495, 497, 496, 495, 494, 493, 494, 495, 496, 493, 494, 496, 493, 495, 496, 496, 493, 495, 495, 494, 494, 495, 495, 495, 493, 499, 495, 494, 494, 495, 495, 494, 494, 493, 495, 494, 492, 496, 496, 495, 495, 496, 495, 495, 493, 494, 494, 493, 495, 494, 495, 493, 494, 495, 495, 494, 495, 495, 495]"
26,rest,"[495, 491, 494, 496, 495, 494, 491, 494, 495, 495, 494, 495, 494, 494, 493, 494, 495, 497, 493, 495, 494, 495, 495, 497, 495, 495, 495, 494, 492, 496, 495, 494, 495, 495, 495, 494, 495, 495, 496, 495, 488, 494, 494, 495, 496, 495, 494, 495, 497, 494, 495, 495, 495, 494, 493, 494, 494, 494, 493, 494, 495, 496, 496, 496, 494, 494, 495, 493, 494, 494, 495, 494, 494, 495, 494, 494, 494, 494, 495, 494, 494, 494, 496, 494, 494, 494, 495, 493, 494, 495, 492, 495, 493, 494, 494, 494, 495, 494, 494, 494, 494, 495, 494, 494, 494, 494, 494, 494, 494, 494, 495, 494, 494, 495, 494, 495, 494, 494, 494, 494, 495, 494, 494, 494, 493, 495, 494, 494, 493, 494, 494, 494, 493, 494, 494, 493, 493, 493, 493, 493, 493, 493, 493, 493, 493, 493, 493, 493, 493, 493, 493, 493, 493, 493, 493, 493, 493, 493, 493, 493, 493, 494, 493, 494, 493, 493, 493, 493, 494, 493, 493, 493, 493, 494, 493, 493, 493, 493, 493, 493, 494, 493, 493, 493, 494, 493, 494, 494, 493, 493, 493, 494, 494, 494, 493, 493, 494, 493, 494, 493, 494, 493, 493, 494, 493, 494, 493, 494, 493, 494, 494, 494, 494, 493, 494, 494, 494, 493, 493, 493, 493, 494, 494, 494, 493, 494, 494, 494, 494, 493, 494, 494, 493, 494, 493, 494, 494, 494, 493, 494, 494, 494, 494, 493, 494, 494, 494, 494, 493, 493, 494, 494, 494, 494, 494, 494, 494, 494, 494, 494, 494, 493, 494, 494, 494, 494, 493, 494, 494, 494, 494, 494, 494, 493, 495, 494, 494, 493, 494, 494, 494, 494, 493, 494, 494, 494, 494, 493, 494, 494, 497, 494, 494, 494, 494, 494, 493, 494, 494, 494, 494, 493, 493, 494, 494, 494, 494, 494, 494, 493, 494, 494, 494, 494, 494, 494, 494, 494, 494, 494, 494, 493, 494, 494, 494, 494, 494, 494, 494, 494, 494, 493, 494, 494, 494, 494, 494, 494, 494, 494, 494, 494, 494, 494, 493, 494, 494, 494, 494, 494, 494, 494, 495, 494, 494, 494, 495, 494, 494, 494, 494, 494, 494, 494, 494, 494, 495, 494, 494, 494, 494, 494, 494, 494, 494, 494, 494, 494, 495, 494, 495, 494, 494, 494, 494, 495, 494, 494, 494, 494, 494, 494, 494, 494, 493, 495, 494, 494, 494, 494, 494, 494, 494, 494, 495, 495, 494, 494, 494, 494, 495, 494, 494, 493, 494, 493, 494, 494, 493, 494, 494, 494, 493, 494, 494, 494, 494, 493, 494, 494, 494, 494, 494, 494, 494, 494, 494, 494, 494, 494, 494, 494, 494, 494, 494, 494, 494, 494, 494, 494, 493, 494, 494, 494, 494, 494, 494, 494, 494, 494, 494, 494, 494, 493, 493, 494, 493, 494, 494, 494, 494, 493, 494, 494, 494, 493, 494, 494, 493, 494, 494, 494, 494, 494, 494, 493, 494, 494, 494, 494, 494, 494, 494, 494, 493, 494, 494, 495, 494, 494, 495, 494, 495, 495, 495, 495, 495, 495, 495, 495, 495, 496, 495, 495, 495, 495, 495, 495, 495, 495, 495, 495, 495, 495, 495, 495, 495, 495, 495, 495, 495, 495, 495, 495, 495, 495, 495, 495, 495, 495, 495, 495, 495, 495, 496, 495, 495, 495, 495, 495, 495, 495, 495, 495, 495, 495, 495, 495, 495, 495, 495, 495, 495, 495, 495, 495, 495, 495, 495, 495, 495, 495, 494, 495, 495, 495, 495]"
27,right,"[495, 495, 495, 495, 495, 495, 495, 495, 495, 495, 495, 495, 495, 495, 495, 495, 494, 495, 495, 495, 495, 495, 495, 495, 495, 495, 495, 495, 495, 495, 495, 495, 495, 495, 495, 495, 495, 495, 495, 495, 495, 495, 495, 495, 495, 495, 495, 495, 495, 495, 495, 495, 495, 495, 495, 495, 495, 495, 495, 495, 495, 495, 495, 495, 495, 495, 495, 495, 495, 495, 495, 495, 495, 495, 495, 494, 495, 495, 495, 495, 495, 495, 495, 495, 495, 495, 495, 495, 495, 495, 495, 495, 495, 495, 495, 495, 495, 495, 495, 495, 495, 495, 495, 494, 495, 495, 495, 495, 495, 495, 495, 495, 495, 495, 495, 495, 495, 495, 495, 494, 495, 495, 495, 495, 495, 495, 495, 495, 495, 494, 495, 495, 495, 495, 495, 494, 495, 495, 494, 495, 494, 495, 495, 495, 495, 495, 495, 495, 495, 495, 495, 495, 494, 495, 494, 496, 494, 495, 494, 496, 497, 493, 495, 495, 494, 495, 494, 494, 495, 496, 494, 494, 494, 494, 493, 494, 495, 494, 494, 498, 493, 495, 495, 493, 498, 496, 494, 495, 495, 497, 495, 495, 495, 495, 494, 494, 495, 496, 494, 496, 497, 494, 495, 493, 495, 495, 497, 495, 496, 490, 495, 494, 495, 496, 494, 496, 497, 496, 496, 496, 498, 496, 495, 496, 495, 498, 495, 500, 497, 496, 494, 494, 494, 495, 494, 495, 498, 496, 499, 496, 496, 494, 497, 496, 495, 495, 496, 496, 497, 495, 494, 498, 495, 495, 498, 496, 494, 491, 494, 493, 495, 493, 494, 495, 498, 500, 498, 500, 496, 493, 498, 496, 495, 495, 496, 495, 493, 496, 499, 493, 496, 494, 493, 493, 495, 497, 493, 494, 493, 496, 495, 495, 497, 495, 491, 495, 494, 496, 496, 495, 494, 493, 495, 495, 493, 495, 496, 493, 494, 493, 495, 498, 495, 494, 495, 494, 499, 494, 493, 493, 495, 496, 495, 492, 495, 500, 495, 493, 495, 493, 493, 496, 493, 494, 496, 493, 496, 493, 493, 495, 495, 493, 496, 491, 494, 494, 496, 496, 495, 494, 495, 496, 494, 494, 495, 493, 495, 495, 495, 494, 495, 494, 494, 495, 494, 495, 495, 494, 494, 492, 491, 495, 494, 494, 494, 494, 492, 496, 495, 495, 493, 495, 495, 493, 495, 496, 494, 494, 495, 495, 493, 494, 492, 495, 495, 493, 493, 494, 494, 494, 495, 495, 496, 494, 494, 494, 496, 493, 495, 494, 499, 495, 494, 491, 495, 493, 493, 494, 495, 493, 495, 497, 495, 494, 493, 495, 491, 492, 496, 495, 494, 493, 493, 495, 495, 493, 493, 493, 494, 498, 493, 495, 495, 494, 493, 494, 495, 494, 494, 494, 493, 491, 494, 495, 495, 494, 495, 494, 497, 495, 495, 494, 496, 493, 493, 494, 493, 493, 493, 496, 491, 495, 493, 493, 494, 495, 493, 491, 494, 493, 495, 494, 494, 492, 494, 495, 494, 493, 494, 494, 495, 493, 493, 494, 495, 492, 494, 494, 494, 495, 494, 493, 493, 493, 494, 489, 492, 494, 494, 493, 492, 493, 494, 495, 494, 493, 494, 493, 493, 495, 495, 492, 494, 494, 495, 494, 492, 494, 493, 494, 495, 492, 495, 494, 495, 494, 494, 494, 494, 494, 495, 495, 494, 494, 492, 493, 495, 491, 492, 493, 495, 492, 493, 493, 494, 494, 493, 495, 494, 495, 495, 493, 493, 495, 493, 494, 495, 494, 493, 494, 494, 494, 493, 494, 494, 495, 493]"
28,rest,"[495, 494, 494, 495, 493, 493, 493, 494, 495, 493, 492, 494, 495, 493, 494, 494, 496, 496, 493, 494, 494, 494, 495, 493, 494, 495, 494, 495, 495, 493, 497, 493, 493, 494, 495, 495, 497, 495, 492, 493, 495, 494, 496, 496, 494, 495, 492, 490, 494, 494, 493, 494, 494, 494, 495, 495, 492, 494, 495, 494, 495, 494, 493, 494, 494, 495, 492, 494, 494, 495, 494, 494, 494, 492, 495, 493, 497, 497, 494, 493, 494, 494, 495, 495, 494, 494, 494, 495, 496, 495, 495, 495, 492, 494, 495, 494, 494, 494, 495, 494, 494, 494, 496, 494, 494, 494, 494, 493, 495, 492, 495, 494, 494, 494, 494, 493, 495, 494, 494, 494, 494, 493, 494, 495, 494, 494, 494, 493, 495, 494, 496, 495, 495, 494, 494, 494, 494, 494, 495, 494, 494, 494, 494, 494, 494, 494, 494, 494, 494, 494, 494, 494, 495, 494, 494, 494, 494, 494, 494, 494, 494, 494, 494, 494, 494, 493, 494, 494, 494, 493, 494, 494, 493, 494, 494, 493, 494, 493, 493, 493, 493, 493, 494, 493, 493, 493, 493, 493, 493, 493, 493, 494, 493, 493, 493, 493, 494, 493, 493, 493, 493, 494, 493, 494, 493, 493, 494, 493, 493, 493, 494, 493, 493, 493, 493, 494, 493, 493, 493, 493, 494, 493, 493, 493, 493, 493, 494, 493, 493, 494, 493, 494, 493, 494, 494, 494, 493, 493, 493, 494, 494, 493, 493, 494, 494, 494, 494, 494, 494, 494, 493, 494, 493, 494, 494, 493, 493, 493, 494, 494, 493, 493, 493, 494, 493, 493, 493, 494, 494, 493, 494, 493, 493, 494, 494, 493, 493, 493, 493, 494, 494, 494, 494, 494, 494, 493, 494, 494, 494, 493, 494, 494, 494, 494, 493, 493, 494, 493, 493, 494, 493, 493, 494, 494, 494, 493, 494, 494, 493, 494, 494, 494, 494, 494, 494, 494, 494, 494, 494, 493, 494, 494, 494, 494, 493, 494, 494, 494, 494, 494, 493, 494, 495, 494, 494, 495, 494, 494, 493, 494, 494, 494, 494, 494, 494, 493, 494, 494, 494, 494, 494, 494, 494, 494, 494, 494, 494, 494, 493, 494, 494, 494, 494, 494, 494, 494, 494, 494, 493, 494, 494, 494, 493, 493, 494, 494, 494, 493, 494, 494, 494, 494, 494, 494, 494, 494, 494, 494, 494, 494, 494, 494, 494, 494, 494, 494, 494, 494, 494, 495, 494, 494, 494, 494, 494, 494, 494, 493, 494, 494, 494, 494, 494, 494, 494, 494, 494, 494, 494, 493, 494, 494, 494, 494, 494, 494, 494, 494, 494, 494, 494, 494, 494, 494, 494, 494, 494, 494, 494, 494, 494, 494, 494, 494, 494, 494, 494, 494, 493, 494, 494, 494, 494, 494, 494, 494, 495, 494, 494, 494, 494, 494, 494, 494, 494, 494, 494, 494, 494, 494, 494, 494, 494, 494, 494, 494, 494, 494, 494, 494, 495, 494, 494, 494, 494, 494, 494, 494, 494, 494, 494, 494, 494, 494, 494, 494, 494, 494, 494, 494, 494, 494, 494, 494, 494, 494, 494, 494, 494, 494, 495, 494, 494, 494, 494, 494, 494, 494, 494, 494, 494, 494, 494, 494, 494, 494, 493, 494, 494, 494, 494, 494, 494, 494, 494, 494, 494, 494, 495, 494, 494, 494, 494, 494, 494, 494, 494, 494, 494, 494, 494, 494, 494, 494, 494, 494, 494, 493, 494, 494, 494, 493, 494, 494, 494, 494, 494, 494, 494, 494, 494, 494, 494, 494, 494, 494]"
29,right,"[494, 494, 494, 494, 494, 494, 494, 494, 494, 494, 494, 494, 494, 493, 494, 494, 494, 494, 494, 494, 494, 494, 494, 494, 494, 494, 493, 494, 494, 494, 494, 493, 494, 494, 494, 494, 494, 494, 494, 494, 494, 494, 494, 494, 494, 493, 494, 494, 494, 494, 494, 494, 494, 494, 494, 494, 494, 494, 494, 494, 494, 493, 494, 494, 494, 494, 494, 494, 494, 494, 494, 494, 494, 494, 494, 494, 494, 493, 494, 494, 494, 494, 494, 494, 494, 494, 494, 495, 495, 494, 494, 493, 494, 494, 494, 494, 494, 494, 494, 494, 494, 494, 494, 494, 494, 494, 494, 494, 494, 494, 494, 493, 494, 494, 494, 494, 494, 494, 494, 494, 494, 495, 494, 494, 494, 494, 494, 494, 494, 493, 494, 494, 494, 494, 494, 494, 494, 495, 494, 495, 493, 495, 493, 497, 494, 495, 494, 493, 494, 494, 495, 495, 493, 494, 494, 496, 492, 494, 493, 492, 494, 493, 493, 494, 492, 496, 494, 496, 494, 494, 494, 494, 494, 494, 493, 499, 495, 495, 494, 495, 495, 495, 494, 495, 494, 494, 495, 495, 493, 495, 498, 495, 499, 496, 495, 496, 499, 495, 496, 494, 496, 497, 491, 500, 496, 501, 495, 496, 495, 501, 495, 498, 497, 496, 494, 498, 496, 495, 495, 496, 495, 494, 496, 496, 493, 492, 496, 497, 495, 496, 497, 498, 497, 498, 496, 495, 492, 494, 495, 494, 494, 496, 493, 496, 493, 496, 495, 496, 494, 498, 492, 496, 496, 492, 496, 493, 496, 494, 495, 493, 494, 495, 496, 494, 489, 493, 498, 498, 495, 495, 494, 495, 497, 500, 494, 495, 496, 495, 496, 495, 495, 495, 493, 497, 494, 494, 496, 497, 495, 493, 496, 494, 492, 496, 494, 495, 494, 493, 494, 494, 494, 493, 495, 495, 495, 495, 494, 494, 493, 495, 496, 492, 494, 495, 495, 495, 495, 495, 494, 494, 494, 495, 494, 495, 493, 495, 494, 493, 496, 496, 494, 495, 495, 495, 495, 497, 495, 498, 495, 495, 494, 494, 494, 496, 495, 496, 495, 492, 495, 495, 495, 496, 493, 497, 496, 494, 494, 493, 495, 494, 494, 494, 495, 493, 495, 495, 493, 494, 494, 494, 495, 494, 495, 496, 494, 489, 494, 495, 497, 495, 494, 493, 494, 495, 494, 493, 496, 496, 493, 496, 495, 492, 495, 494, 495, 495, 496, 495, 493, 494, 493, 494, 494, 493, 494, 494, 494, 495, 494, 496, 495, 496, 494, 495, 491, 493, 494, 492, 493, 494, 492, 495, 493, 493, 493, 494, 494, 493, 494, 495, 495, 496, 495, 494, 496, 493, 495, 495, 496, 495, 493, 495, 494, 495, 492, 497, 490, 496, 497, 497, 494, 495, 495, 495, 494, 495, 495, 496, 495, 494, 494, 497, 495, 494, 495, 494, 494, 494, 495, 495, 495, 495, 493, 494, 495, 495, 493, 494, 497, 494, 495, 495, 493, 496, 493, 496, 494, 493, 494, 494, 496, 496, 496, 495, 493, 493, 494, 494, 496, 494, 495, 495, 494, 495, 497, 495, 493, 494, 494, 494, 495, 494, 494, 493, 495, 494, 494, 496, 493, 495, 494, 496, 496, 494, 495, 495, 495, 496, 495, 494, 494, 495, 495, 494, 495, 495, 493, 493, 493, 494, 496, 495, 493, 495, 494, 494, 496, 493, 497, 493, 496, 495, 493, 496, 494, 495, 495, 491, 494, 494, 494, 496, 494, 497, 495, 496, 494, 494, 494, 494, 493, 495, 496, 495, 495, 495, 495]"
30,rest,"[495, 494, 497, 493, 495, 496, 494, 495, 494, 493, 494, 493, 494, 494, 494, 493, 493, 497, 495, 494, 496, 494, 494, 495, 494, 493, 495, 493, 493, 495, 494, 495, 495, 493, 494, 495, 494, 493, 490, 495, 494, 498, 495, 494, 492, 493, 495, 496, 493, 494, 496, 494, 493, 494, 494, 495, 494, 495, 493, 497, 496, 495, 494, 494, 494, 495, 493, 494, 494, 493, 494, 494, 494, 494, 493, 493, 494, 494, 499, 495, 495, 494, 494, 494, 494, 494, 494, 496, 494, 495, 494, 494, 494, 494, 494, 495, 493, 495, 493, 496, 494, 494, 494, 494, 494, 493, 492, 494, 495, 494, 494, 494, 493, 495, 494, 494, 495, 494, 494, 494, 495, 494, 494, 495, 494, 493, 494, 494, 494, 494, 494, 491, 496, 494, 488, 496, 496, 495, 495, 494, 495, 495, 495, 495, 494, 494, 494, 494, 494, 494, 494, 494, 494, 494, 493, 494, 494, 494, 493, 494, 493, 494, 494, 494, 493, 493, 494, 493, 493, 493, 493, 494, 493, 493, 493, 493, 493, 493, 493, 493, 493, 493, 493, 493, 493, 493, 493, 493, 493, 493, 493, 493, 493, 493, 493, 493, 493, 493, 493, 493, 493, 493, 493, 493, 493, 494, 493, 493, 493, 493, 494, 493, 494, 493, 494, 493, 494, 493, 493, 494, 494, 494, 494, 494, 494, 494, 493, 493, 494, 494, 494, 494, 494, 493, 494, 494, 494, 494, 494, 494, 494, 494, 494, 495, 495, 493, 494, 495, 495, 495, 494, 494, 494, 495, 494, 494, 494, 494, 495, 494, 494, 494, 494, 494, 494, 495, 494, 495, 494, 495, 495, 495, 495, 494, 494, 495, 495, 495, 494, 495, 494, 495, 495, 495, 494, 494, 495, 495, 495, 495, 495, 495, 495, 495, 495, 495, 495, 495, 494, 495, 495, 495, 495, 495, 495, 495, 495, 494, 495, 495, 495, 495, 495, 495, 495, 495, 495, 495, 495, 495, 495, 495, 495, 495, 495, 495, 495, 495, 495, 495, 495, 495, 495, 495, 495, 495, 495, 495, 495, 495, 496, 495, 495, 495, 495, 495, 495, 495, 495, 495, 495, 495, 495, 496, 495, 495, 495, 496, 495, 495, 495, 495, 495, 495, 496, 495, 495, 496, 495, 496, 496, 496, 495, 496, 495, 495, 495, 495, 496, 496, 495, 495, 495, 496, 496, 496, 496, 496, 496, 496, 495, 496, 496, 495, 496, 496, 495, 495, 496, 495, 496, 496, 496, 496, 496, 495, 495, 496, 496, 495, 495, 495, 496, 496, 495, 495, 495, 496, 496, 495, 496, 495, 496, 495, 496, 495, 495, 495, 496, 495, 495, 496, 495, 495, 495, 495, 496, 495, 495, 495, 495, 495, 495, 495, 495, 495, 495, 495, 495, 495, 495, 495, 495, 495, 495, 495, 495, 495, 495, 495, 496, 495, 495, 495, 495, 495, 495, 495, 495, 495, 495, 495, 494, 495, 495, 495, 495, 495, 495, 495, 495, 495, 495, 495, 495, 495, 495, 495, 495, 495, 495, 495, 495, 495, 495, 495, 495, 495, 495, 495, 495, 495, 495, 495, 495, 495, 495, 495, 495, 495, 495, 495, 494, 495, 495, 495, 495, 494, 495, 495, 495, 494, 494, 495, 495, 495, 495, 494, 495, 495, 495, 494, 494, 494, 494, 494, 494, 494, 494, 495, 494, 494, 495, 494, 494, 494, 495, 495, 495, 494, 494, 494, 494, 494, 494, 494, 493, 494, 494, 494, 494, 494, 495, 494, 494, 494, 495, 494, 494, 494, 494, 494, 494, 494, 494, 494, 494]"
31,right,"[494, 494, 494, 494, 495, 494, 494, 494, 494, 494, 494, 494, 494, 494, 494, 494, 494, 493, 495, 494, 494, 494, 494, 494, 494, 494, 494, 494, 494, 494, 494, 494, 494, 494, 494, 494, 494, 494, 494, 494, 494, 494, 494, 494, 494, 494, 494, 494, 494, 494, 494, 494, 494, 494, 494, 494, 494, 494, 494, 494, 494, 494, 494, 494, 493, 494, 493, 494, 494, 494, 493, 495, 494, 494, 494, 494, 494, 494, 494, 494, 494, 494, 494, 494, 494, 494, 494, 494, 494, 494, 494, 494, 494, 494, 494, 494, 494, 494, 494, 494, 494, 494, 494, 494, 494, 494, 494, 494, 494, 494, 494, 494, 494, 494, 494, 494, 494, 494, 494, 494, 494, 494, 494, 494, 494, 494, 494, 494, 493, 494, 494, 493, 494, 495, 494, 492, 494, 494, 495, 495, 495, 495, 495, 494, 494, 494, 496, 494, 494, 495, 494, 494, 495, 493, 495, 495, 494, 492, 495, 494, 493, 494, 493, 496, 493, 494, 494, 495, 494, 494, 494, 494, 495, 494, 495, 494, 495, 493, 496, 497, 493, 496, 494, 495, 497, 492, 495, 495, 496, 492, 497, 497, 496, 496, 495, 494, 495, 496, 496, 494, 496, 495, 499, 499, 491, 497, 495, 496, 497, 498, 495, 496, 497, 495, 496, 500, 496, 494, 495, 492, 497, 494, 499, 496, 493, 494, 499, 496, 493, 497, 498, 494, 497, 490, 496, 494, 495, 497, 494, 496, 494, 497, 498, 496, 498, 498, 496, 492, 495, 494, 495, 494, 495, 496, 499, 501, 499, 498, 497, 493, 498, 495, 495, 495, 495, 497, 496, 496, 495, 495, 496, 496, 494, 497, 495, 496, 494, 494, 495, 497, 496, 497, 496, 496, 496, 495, 496, 494, 495, 497, 496, 497, 497, 493, 495, 495, 494, 495, 496, 494, 497, 496, 495, 496, 494, 494, 495, 490, 495, 497, 495, 496, 490, 495, 496, 499, 493, 495, 494, 495, 494, 495, 496, 497, 493, 496, 495, 495, 496, 494, 495, 495, 497, 495, 495, 495, 496, 495, 495, 495, 495, 494, 495, 495, 495, 496, 493, 494, 496, 496, 495, 496, 496, 496, 496, 495, 495, 497, 495, 496, 495, 496, 495, 496, 496, 494, 497, 496, 495, 498, 494, 493, 495, 496, 493, 494, 496, 496, 495, 494, 496, 494, 494, 494, 494, 495, 495, 495, 495, 494, 496, 495, 494, 496, 494, 496, 498, 496, 495, 494, 495, 495, 497, 493, 495, 495, 495, 495, 497, 495, 495, 495, 495, 496, 500, 495, 496, 496, 496, 495, 496, 495, 494, 496, 493, 494, 495, 494, 496, 496, 496, 495, 495, 495, 494, 496, 496, 495, 498, 495, 496, 495, 497, 496, 495, 495, 496, 493, 495, 495, 496, 494, 495, 495, 495, 495, 495, 495, 494, 497, 493, 495, 496, 496, 494, 495, 495, 495, 493, 495, 497, 493, 495, 495, 494, 494, 495, 495, 497, 494, 495, 497, 497, 496, 495, 495, 498, 495, 497, 493, 492, 497, 495, 494, 494, 495, 494, 495, 493, 495, 495, 496, 498, 495, 495, 498, 495, 496, 494, 495, 496, 493, 495, 495, 495, 494, 494, 494, 495, 496, 495, 497, 495, 493, 496, 496, 495, 494, 497, 496, 493, 494, 494, 492, 496, 494, 496, 495, 495, 493, 497, 496, 493, 493, 495, 495, 495, 496, 493, 495, 495, 496, 493, 498, 496, 494, 497, 495, 495, 495, 494, 495, 496, 495, 495, 494, 494, 496, 497, 495, 496, 496, 493, 495, 495, 494, 492]"
32,rest,"[495, 497, 493, 495, 496, 495, 493, 495, 493, 497, 495, 496, 495, 493, 495, 495, 495, 495, 496, 494, 495, 494, 496, 494, 492, 495, 496, 494, 495, 494, 498, 494, 493, 496, 496, 495, 494, 498, 495, 493, 495, 496, 496, 495, 495, 495, 495, 495, 496, 495, 496, 494, 494, 496, 498, 495, 495, 493, 495, 494, 494, 494, 494, 494, 494, 499, 493, 496, 495, 495, 493, 493, 493, 497, 495, 496, 493, 498, 496, 496, 497, 496, 494, 495, 499, 495, 497, 495, 495, 499, 494, 494, 497, 496, 495, 496, 493, 494, 494, 495, 496, 493, 495, 495, 495, 489, 492, 494, 496, 494, 493, 494, 495, 494, 495, 493, 494, 494, 495, 494, 495, 495, 494, 495, 494, 494, 494, 495, 494, 490, 495, 495, 485, 495, 493, 496, 496, 495, 495, 495, 495, 495, 494, 494, 494, 495, 495, 494, 494, 493, 494, 494, 494, 494, 493, 494, 494, 494, 494, 494, 493, 494, 494, 493, 494, 494, 494, 494, 494, 494, 494, 494, 494, 494, 494, 494, 494, 492, 495, 495, 493, 494, 494, 494, 494, 494, 494, 494, 494, 494, 494, 494, 494, 493, 494, 494, 494, 494, 494, 494, 494, 494, 494, 494, 494, 494, 494, 494, 494, 494, 494, 494, 494, 494, 494, 494, 493, 494, 494, 494, 494, 494, 494, 494, 494, 494, 494, 495, 494, 494, 494, 494, 495, 494, 494, 493, 494, 494, 494, 494, 494, 495, 494, 494, 494, 494, 494, 495, 495, 494, 494, 495, 495, 494, 494, 494, 495, 494, 494, 495, 494, 495, 494, 494, 494, 494, 495, 494, 494, 494, 494, 494, 494, 494, 494, 494, 494, 494, 495, 494, 495, 494, 494, 494, 494, 495, 494, 494, 494, 494, 494, 495, 495, 494, 495, 494, 495, 494, 495, 494, 495, 495, 494, 494, 494, 495, 494, 494, 495, 495, 495, 494, 495, 494, 495, 494, 494, 494, 494, 495, 494, 494, 494, 494, 495, 494, 495, 494, 494, 494, 494, 494, 494, 494, 494, 494, 494, 494, 495, 494, 494, 494, 494, 495, 495, 494, 494, 494, 495, 495, 494, 494, 494, 495, 494, 494, 494, 494, 495, 494, 494, 495, 495, 494, 494, 494, 494, 494, 494, 494, 494, 494, 495, 494, 494, 494, 494, 495, 494, 494, 494, 494, 495, 495, 494, 494, 494, 494, 494, 494, 494, 495, 494, 494, 494, 494, 495, 494, 494, 494, 494, 494, 495, 494, 494, 494, 495, 494, 494, 494, 494, 495, 494, 494, 494, 494, 494, 494, 494, 494, 495, 494, 494, 494, 494, 495, 494, 494, 494, 494, 495, 494, 494, 494, 494, 494, 495, 494, 494, 494, 494, 495, 494, 494, 495, 495, 494, 494, 494, 494, 494, 494, 494, 494, 494, 495, 494, 494, 494, 494, 494, 494, 494, 494, 495, 494, 494, 494, 494, 494, 494, 494, 494, 495, 494, 494, 494, 494, 495, 494, 494, 494, 494, 495, 494, 494, 494, 494, 494, 495, 494, 494, 494, 494, 494, 494, 494, 494, 494, 495, 494, 494, 494, 494, 494, 494, 494, 494, 495, 494, 494, 494, 495, 495, 494, 494, 494, 495, 494, 494, 494, 494, 495, 494, 494, 494, 495, 494, 494, 495, 494, 495, 494, 495, 494, 494, 495, 494, 495, 494, 495, 495, 494, 495, 496, 494, 495, 495, 494, 495, 495, 495, 494, 494, 495, 495, 495, 495, 494, 494, 495, 495, 494, 495, 494, 495, 495, 495, 495, 495, 495, 495, 495, 495, 495, 495]"
33,right,"[495, 495, 495, 495, 495, 495, 495, 495, 495, 495, 495, 495, 495, 495, 495, 495, 495, 495, 495, 495, 495, 495, 495, 495, 495, 495, 495, 495, 496, 495, 495, 495, 495, 496, 495, 495, 495, 495, 495, 495, 495, 495, 495, 495, 496, 495, 495, 496, 496, 496, 495, 495, 496, 496, 496, 496, 496, 496, 496, 495, 496, 495, 496, 496, 496, 496, 496, 496, 495, 496, 496, 496, 496, 495, 495, 495, 496, 495, 496, 495, 495, 496, 496, 495, 496, 496, 496, 496, 495, 496, 496, 496, 495, 495, 495, 496, 496, 496, 496, 496, 496, 496, 496, 496, 495, 496, 496, 496, 495, 496, 496, 496, 496, 496, 496, 496, 495, 496, 495, 497, 496, 496, 495, 495, 496, 496, 495, 495, 496, 496, 496, 496, 496, 495, 496, 495, 495, 496, 496, 496, 495, 495, 496, 495, 496, 496, 495, 495, 496, 496, 496, 495, 495, 496, 496, 495, 495, 496, 496, 495, 496, 496, 495, 495, 495, 496, 496, 497, 496, 496, 495, 495, 496, 496, 496, 496, 496, 495, 495, 496, 495, 497, 495, 495, 496, 496, 498, 495, 495, 496, 495, 495, 495, 497, 494, 496, 496, 495, 495, 497, 492, 496, 496, 494, 495, 494, 495, 493, 495, 494, 496, 498, 497, 494, 495, 495, 497, 498, 497, 494, 496, 495, 494, 496, 496, 496, 495, 498, 495, 497, 497, 500, 495, 498, 495, 499, 496, 496, 499, 498, 500, 499, 499, 495, 497, 496, 493, 497, 495, 496, 495, 496, 496, 495, 499, 496, 496, 496, 496, 496, 499, 495, 495, 496, 495, 493, 494, 498, 499, 498, 496, 496, 494, 495, 495, 494, 496, 497, 497, 496, 495, 496, 495, 497, 495, 500, 494, 495, 496, 494, 496, 493, 495, 493, 497, 495, 495, 497, 496, 497, 498, 495, 497, 494, 498, 494, 496, 494, 499, 494, 497, 496, 495, 493, 496, 494, 494, 496, 497, 495, 493, 491, 494, 498, 495, 496, 495, 496, 495, 495, 495, 495, 494, 493, 494, 496, 495, 500, 496, 492, 500, 496, 492, 498, 493, 495, 491, 497, 494, 494, 493, 495, 495, 494, 495, 498, 495, 494, 494, 493, 496, 492, 493, 493, 491, 496, 494, 495, 493, 495, 493, 492, 493, 494, 494, 495, 495, 493, 495, 495, 499, 494, 495, 492, 493, 497, 496, 495, 494, 493, 496, 494, 494, 496, 494, 495, 497, 495, 491, 498, 495, 494, 495, 496, 494, 496, 495, 497, 494, 496, 495, 498, 496, 497, 497, 494, 493, 497, 496, 495, 494, 493, 495, 494, 497, 494, 495, 494, 496, 496, 494, 495, 494, 495, 495, 496, 494, 493, 494, 495, 496, 495, 495, 500, 495, 495, 497, 495, 496, 493, 493, 495, 494, 495, 495, 495, 493, 493, 496, 497, 494, 494, 497, 494, 494, 494, 494, 495, 496, 495, 494, 495, 496, 496, 495, 493, 495, 495, 495, 495, 495, 494, 494, 495, 495, 494, 495, 492, 494, 494, 495, 494, 494, 496, 495, 494, 491, 495, 493, 496, 494, 494, 495, 496, 495, 494, 493, 494, 495, 494, 495, 496, 496, 494, 493, 493, 495, 495, 494, 494, 495, 494, 493, 494, 495, 495, 499, 493, 494, 496, 495, 498, 495, 493, 496, 493, 494, 496, 493, 495, 494, 495, 492, 495, 495, 496, 496, 491, 494, 494, 495, 495, 495, 494, 495, 493, 494, 496, 499, 495, 492, 493, 496, 496, 496, 493, 494, 496, 496, 495, 495, 491, 495, 495, 494, 497, 494]"
34,rest,"[495, 493, 496, 495, 495, 498, 492, 495, 494, 492, 493, 494, 495, 492, 495, 494, 495, 495, 493, 498, 495, 495, 495, 495, 496, 493, 496, 495, 495, 494, 494, 493, 495, 493, 494, 493, 496, 494, 495, 497, 495, 493, 494, 492, 494, 497, 496, 493, 495, 495, 494, 495, 492, 495, 496, 495, 495, 494, 494, 494, 493, 496, 495, 496, 498, 496, 494, 497, 494, 496, 494, 496, 495, 494, 494, 495, 494, 494, 494, 494, 494, 493, 495, 495, 496, 494, 494, 495, 494, 494, 495, 495, 494, 494, 494, 494, 495, 493, 495, 494, 495, 495, 496, 493, 493, 497, 494, 494, 496, 494, 493, 495, 494, 494, 497, 491, 496, 495, 494, 494, 493, 493, 494, 495, 495, 494, 495, 494, 498, 494, 495, 495, 495, 493, 496, 494, 495, 494, 495, 496, 494, 494, 494, 495, 495, 494, 495, 478, 502, 496, 491, 496, 498, 495, 494, 495, 494, 496, 495, 493, 491, 498, 497, 496, 497, 495, 495, 495, 496, 496, 496, 495, 495, 494, 495, 495, 492, 496, 495, 495, 495, 495, 495, 495, 495, 494, 495, 495, 496, 496, 493, 495, 495, 495, 493, 498, 496, 495, 495, 492, 496, 495, 496, 496, 495, 495, 495, 496, 495, 495, 497, 493, 496, 496, 495, 496, 495, 495, 495, 495, 495, 495, 495, 495, 495, 495, 495, 496, 495, 495, 495, 495, 495, 495, 495, 495, 495, 495, 495, 495, 495, 496, 494, 496, 495, 495, 495, 495, 495, 495, 495, 495, 495, 495, 496, 495, 496, 496, 495, 495, 495, 496, 495, 495, 495, 496, 496, 495, 495, 495, 496, 496, 495, 496, 495, 496, 495, 496, 495, 496, 496, 495, 496, 495, 495, 495, 495, 496, 495, 495, 496, 496, 495, 496, 496, 496, 495, 495, 495, 496, 496, 495, 495, 495, 496, 495, 495, 495, 495, 495, 496, 495, 495, 495, 495, 495, 495, 495, 495, 495, 495, 495, 495, 495, 495, 495, 495, 495, 495, 495, 495, 495, 495, 495, 495, 495, 495, 495, 495, 495, 495, 495, 495, 495, 495, 495, 495, 495, 495, 495, 495, 495, 495, 495, 495, 495, 495, 495, 495, 494, 495, 494, 495, 495, 494, 495, 494, 495, 495, 494, 494, 494, 495, 494, 495, 494, 494, 494, 495, 495, 494, 495, 494, 494, 495, 494, 495, 494, 494, 494, 494, 494, 494, 494, 494, 494, 494, 494, 494, 494, 494, 494, 494, 494, 494, 494, 494, 494, 494, 494, 494, 495, 494, 494, 494, 494, 495, 494, 494, 494, 494, 494, 494, 494, 494, 494, 494, 494, 494, 494, 494, 494, 494, 494, 495, 494, 495, 494, 494, 495, 494, 494, 494, 494, 495, 494, 495, 494, 494, 494, 495, 494, 494, 494, 494, 494, 494, 494, 495, 495, 494, 494, 494, 495, 495, 494, 495, 494, 494, 495, 494, 494, 494, 494, 494, 494, 494, 494, 494, 494, 494, 494, 494, 494, 494, 494, 494, 494, 494, 495, 494, 494, 495, 494, 494, 494, 494, 493, 494, 494, 493, 494, 494, 494, 494, 494, 494, 494, 494, 494, 494, 494, 495, 494, 494, 495, 494, 494, 493, 494, 494, 494, 494, 494, 494, 494, 495, 494, 494, 494, 494, 495, 494, 494, 494, 494, 494, 494, 494, 494, 495, 494, 494, 495, 494, 495, 494, 494, 494, 494, 494, 494, 494, 494, 494, 494, 494, 494, 494, 494, 494, 494, 494, 494, 494, 495, 494, 494, 494, 495, 495, 494, 494, 494, 494, 495]"
35,right,"[494, 494, 494, 494, 494, 494, 494, 494, 495, 494, 494, 494, 494, 494, 494, 494, 494, 494, 494, 495, 495, 494, 495, 494, 494, 494, 495, 495, 494, 494, 494, 494, 495, 495, 494, 494, 494, 495, 494, 494, 494, 494, 495, 494, 495, 494, 494, 495, 494, 494, 494, 495, 495, 494, 494, 494, 495, 495, 494, 494, 494, 494, 495, 495, 494, 494, 494, 494, 494, 494, 494, 494, 494, 494, 494, 495, 494, 494, 494, 494, 495, 494, 494, 494, 494, 495, 495, 494, 494, 494, 494, 495, 494, 495, 494, 495, 495, 494, 494, 495, 495, 494, 494, 494, 494, 495, 495, 494, 494, 495, 495, 494, 495, 494, 495, 494, 494, 494, 494, 494, 494, 494, 494, 494, 494, 494, 494, 494, 495, 494, 495, 494, 494, 495, 495, 494, 494, 495, 495, 494, 495, 494, 494, 494, 495, 495, 494, 494, 495, 494, 494, 495, 496, 494, 494, 495, 497, 494, 495, 494, 495, 495, 495, 493, 495, 494, 494, 494, 493, 495, 497, 492, 495, 493, 495, 494, 494, 495, 494, 494, 495, 495, 494, 494, 496, 493, 494, 494, 493, 494, 495, 495, 495, 495, 495, 494, 493, 494, 495, 496, 493, 495, 494, 495, 495, 495, 494, 495, 497, 495, 496, 493, 495, 494, 500, 496, 496, 496, 494, 495, 497, 493, 495, 498, 497, 495, 494, 496, 495, 494, 498, 497, 494, 495, 495, 495, 495, 495, 490, 496, 493, 494, 494, 496, 494, 498, 499, 497, 497, 496, 494, 496, 496, 495, 499, 498, 497, 496, 496, 497, 497, 494, 495, 495, 494, 496, 495, 494, 496, 494, 495, 496, 495, 498, 497, 496, 494, 499, 494, 498, 494, 494, 494, 495, 496, 495, 498, 495, 497, 495, 494, 496, 496, 495, 496, 496, 493, 492, 495, 498, 492, 495, 494, 496, 491, 495, 496, 495, 493, 494, 497, 498, 497, 494, 494, 494, 493, 495, 495, 499, 493, 495, 497, 492, 494, 494, 502, 494, 495, 497, 495, 495, 493, 494, 495, 496, 499, 493, 495, 495, 494, 493, 498, 493, 494, 494, 494, 494, 496, 494, 496, 495, 495, 496, 495, 494, 495, 495, 495, 495, 494, 495, 493, 496, 494, 495, 494, 493, 495, 496, 494, 495, 495, 495, 495, 495, 494, 494, 494, 495, 494, 496, 495, 497, 495, 495, 493, 495, 495, 495, 498, 493, 495, 495, 495, 495, 495, 494, 495, 496, 496, 497, 496, 492, 495, 495, 496, 496, 495, 495, 496, 493, 495, 495, 498, 497, 496, 493, 495, 495, 497, 496, 497, 497, 496, 496, 495, 496, 494, 496, 494, 494, 495, 495, 495, 494, 495, 496, 494, 496, 495, 495, 497, 501, 495, 495, 496, 497, 494, 494, 496, 497, 495, 495, 495, 496, 497, 496, 496, 495, 497, 497, 496, 494, 495, 495, 496, 495, 495, 497, 495, 496, 496, 497, 497, 498, 495, 495, 496, 496, 497, 495, 496, 495, 494, 495, 494, 493, 496, 496, 499, 494, 496, 498, 494, 498, 496, 495, 495, 495, 498, 495, 496, 497, 497, 498, 495, 495, 498, 496, 495, 497, 496, 496, 497, 495, 499, 496, 497, 496, 495, 496, 496, 495, 499, 495, 496, 495, 497, 498, 496, 501, 497, 495, 494, 496, 494, 500, 496, 496, 495, 500, 496, 498, 495, 497, 494, 496, 496, 495, 494, 493, 496, 495, 496, 497, 494, 497, 495, 494, 497, 494, 496, 496, 496, 495, 499, 495, 495, 497, 495, 495, 495, 493, 497, 495, 495]"
36,rest,"[495, 496, 495, 495, 496, 498, 494, 494, 496, 495, 494, 495, 493, 496, 496, 495, 495, 495, 493, 494, 496, 497, 496, 496, 496, 496, 495, 495, 495, 495, 495, 494, 495, 495, 495, 494, 493, 496, 494, 497, 496, 497, 495, 495, 496, 495, 495, 495, 493, 496, 495, 493, 495, 496, 496, 499, 493, 495, 494, 493, 495, 494, 496, 498, 493, 494, 493, 495, 493, 495, 496, 496, 494, 492, 496, 493, 494, 498, 494, 496, 494, 494, 494, 494, 496, 494, 495, 498, 492, 494, 496, 495, 495, 494, 495, 496, 495, 496, 491, 496, 495, 494, 496, 496, 495, 495, 495, 495, 495, 493, 495, 497, 494, 496, 494, 495, 495, 495, 495, 495, 495, 496, 496, 496, 496, 496, 496, 495, 495, 493, 496, 495, 495, 494, 493, 496, 495, 495, 493, 496, 495, 495, 495, 495, 495, 495, 495, 495, 495, 495, 495, 495, 495, 495, 495, 495, 495, 495, 495, 495, 495, 495, 495, 494, 495, 495, 495, 494, 495, 495, 495, 495, 495, 495, 495, 496, 495, 495, 494, 497, 495, 496, 495, 496, 495, 494, 495, 494, 496, 496, 496, 495, 495, 496, 496, 495, 495, 495, 496, 495, 495, 495, 495, 496, 496, 495, 495, 496, 496, 495, 495, 495, 496, 496, 495, 495, 495, 496, 495, 496, 495, 495, 495, 495, 496, 495, 496, 495, 495, 496, 495, 496, 496, 495, 495, 495, 496, 495, 495, 495, 496, 496, 496, 495, 495, 495, 496, 495, 495, 495, 495, 496, 495, 495, 495, 496, 495, 495, 495, 496, 495, 495, 495, 495, 495, 495, 496, 495, 496, 495, 496, 496, 495, 496, 495, 496, 495, 495, 495, 495, 495, 495, 495, 495, 496, 495, 495, 495, 495, 496, 495, 495, 495, 495, 495, 495, 495, 495, 495, 495, 495, 495, 495, 495, 495, 494, 495, 495, 495, 496, 495, 495, 495, 495, 495, 495, 495, 495, 495, 495, 495, 495, 495, 495, 495, 495, 495, 495, 495, 495, 495, 495, 495, 495, 495, 495, 495, 495, 495, 495, 495, 495, 496, 495, 495, 495, 495, 495, 495, 495, 495, 495, 495, 495, 495, 495, 494, 495, 495, 494, 495, 495, 495, 495, 495, 495, 495, 495, 495, 495, 495, 495, 495, 495, 495, 495, 495, 495, 495, 495, 494, 495, 495, 495, 495, 495, 494, 495, 495, 495, 495, 495, 495, 495, 495, 495, 495, 495, 495, 495, 495, 495, 495, 495, 495, 495, 495, 495, 495, 495, 495, 494, 494, 495, 495, 495, 495, 495, 494, 495, 495, 494, 495, 495, 495, 495, 494, 494, 494, 495, 494, 495, 494, 494, 495, 494, 494, 494, 494, 494, 494, 494, 494, 494, 494, 495, 494, 494, 495, 494, 494, 494, 494, 495, 495, 494, 494, 494, 495, 494, 494, 494, 494, 494, 494, 494, 494, 494, 495, 495, 494, 494, 494, 495, 494, 494, 494, 494, 494, 494, 494, 494, 494, 494, 494, 494, 494, 494, 494, 494, 493, 494, 494, 494, 494, 494, 494, 494, 494, 494, 494, 495, 494, 494, 494, 494, 494, 494, 494, 494, 494, 494, 494, 494, 494, 494, 494, 494, 494, 494, 494, 494, 494, 494, 494, 494, 494, 494, 495, 494, 495, 494, 494, 494, 494, 494, 495, 494, 494, 494, 494, 494, 494, 494, 494, 494, 494, 494, 494, 494, 494, 494, 494, 494, 495, 494, 494, 494, 494, 494, 494, 494, 494, 494, 494, 495, 494, 494, 494, 494, 494, 494, 494, 493, 494, 494, 493]"
37,right,"[494, 494, 494, 494, 494, 494, 495, 495, 494, 494, 494, 494, 494, 494, 494, 493, 494, 494, 494, 493, 494, 494, 494, 494, 494, 494, 494, 494, 494, 494, 494, 494, 494, 494, 494, 495, 494, 494, 494, 494, 494, 494, 494, 494, 494, 494, 494, 494, 494, 494, 494, 495, 494, 494, 494, 494, 494, 494, 494, 494, 494, 494, 494, 494, 494, 494, 494, 494, 494, 494, 494, 494, 494, 494, 494, 494, 494, 494, 493, 494, 494, 494, 494, 494, 494, 494, 494, 494, 495, 494, 494, 494, 494, 494, 494, 494, 494, 494, 495, 494, 494, 494, 494, 495, 494, 494, 494, 494, 494, 494, 494, 494, 494, 495, 494, 493, 494, 494, 494, 494, 494, 494, 494, 494, 494, 494, 493, 495, 494, 494, 494, 493, 494, 494, 494, 494, 494, 494, 494, 494, 494, 496, 494, 494, 494, 494, 496, 494, 494, 493, 494, 495, 494, 494, 493, 494, 495, 494, 495, 494, 492, 496, 493, 493, 494, 494, 494, 495, 495, 494, 495, 495, 493, 493, 495, 497, 496, 495, 491, 496, 495, 493, 495, 494, 496, 493, 495, 494, 494, 495, 496, 495, 494, 494, 497, 494, 498, 495, 495, 498, 496, 497, 496, 494, 494, 493, 494, 495, 496, 497, 495, 494, 496, 497, 498, 496, 495, 494, 493, 499, 493, 497, 494, 493, 495, 496, 495, 490, 495, 495, 495, 494, 494, 495, 492, 495, 497, 495, 495, 495, 493, 495, 495, 492, 494, 494, 496, 495, 496, 494, 495, 495, 493, 494, 492, 493, 495, 495, 496, 494, 494, 493, 498, 491, 496, 497, 495, 495, 494, 494, 493, 494, 496, 495, 499, 493, 496, 495, 495, 497, 494, 499, 498, 496, 490, 495, 496, 493, 495, 495, 494, 494, 496, 495, 495, 494, 497, 499, 496, 494, 494, 495, 494, 495, 494, 495, 497, 495, 495, 495, 495, 496, 496, 495, 494, 493, 494, 495, 491, 496, 494, 492, 495, 495, 493, 493, 493, 495, 494, 494, 494, 495, 489, 495, 496, 496, 493, 493, 494, 495, 495, 494, 490, 494, 495, 490, 494, 493, 497, 492, 494, 494, 493, 494, 494, 496, 493, 493, 495, 494, 494, 493, 493, 495, 495, 492, 494, 494, 493, 493, 494, 495, 495, 495, 495, 493, 495, 494, 494, 493, 496, 495, 494, 494, 494, 493, 494, 494, 497, 494, 494, 494, 494, 493, 497, 493, 496, 495, 494, 497, 495, 494, 495, 497, 494, 496, 496, 495, 496, 496, 495, 496, 494, 493, 495, 495, 497, 495, 496, 495, 495, 495, 495, 494, 494, 495, 495, 495, 495, 494, 495, 496, 497, 494, 495, 493, 495, 495, 494, 494, 495, 494, 495, 495, 494, 496, 494, 495, 495, 496, 494, 495, 495, 494, 494, 494, 496, 497, 495, 497, 495, 496, 494, 495, 495, 494, 493, 494, 494, 495, 493, 494, 492, 494, 495, 495, 495, 493, 494, 493, 492, 494, 494, 496, 495, 494, 495, 494, 495, 494, 494, 495, 495, 494, 494, 493, 496, 493, 493, 493, 494, 496, 495, 494, 496, 495, 495, 494, 496, 494, 492, 493, 494, 496, 494, 496, 494, 495, 494, 498, 495, 494, 495, 495, 496, 494, 494, 495, 493, 494, 493, 494, 493, 493, 494, 495, 494, 494, 494, 493, 495, 494, 495, 496, 495, 494, 494, 494, 492, 494, 493, 494, 493, 497, 495, 495, 495, 497, 494, 493, 493, 494, 496, 495, 494, 495, 495, 495, 493, 495, 494, 494, 493, 494, 495, 493, 495]"
38,rest,"[494, 494, 493, 496, 494, 494, 495, 495, 494, 499, 494, 495, 496, 495, 495, 495, 493, 497, 495, 496, 494, 494, 495, 495, 495, 494, 494, 494, 496, 495, 493, 496, 495, 494, 494, 493, 494, 495, 495, 495, 495, 492, 495, 495, 495, 492, 494, 495, 495, 495, 493, 496, 495, 495, 493, 494, 494, 494, 493, 495, 494, 495, 494, 494, 495, 494, 495, 494, 495, 492, 494, 495, 494, 495, 494, 495, 494, 496, 495, 492, 494, 495, 495, 493, 494, 495, 494, 495, 493, 497, 494, 497, 495, 494, 496, 494, 496, 494, 494, 494, 497, 492, 495, 495, 495, 494, 495, 493, 495, 495, 495, 494, 495, 495, 494, 494, 495, 495, 494, 495, 495, 494, 494, 495, 495, 494, 495, 494, 495, 494, 495, 495, 495, 494, 493, 487, 498, 495, 496, 494, 496, 495, 495, 495, 495, 494, 495, 495, 495, 494, 494, 495, 494, 494, 494, 494, 494, 495, 494, 494, 494, 494, 495, 494, 494, 493, 495, 494, 494, 494, 494, 493, 494, 494, 495, 494, 494, 495, 495, 494, 494, 494, 494, 494, 494, 493, 493, 494, 494, 494, 494, 495, 494, 494, 494, 494, 495, 494, 494, 494, 494, 494, 495, 494, 494, 494, 494, 494, 494, 494, 494, 495, 494, 494, 494, 494, 495, 494, 494, 494, 494, 495, 494, 494, 494, 494, 495, 494, 495, 494, 494, 494, 494, 494, 494, 494, 494, 494, 494, 494, 494, 495, 494, 494, 495, 494, 495, 495, 494, 495, 495, 494, 494, 495, 495, 494, 494, 494, 495, 494, 495, 494, 494, 495, 495, 495, 494, 494, 495, 495, 494, 495, 495, 495, 494, 495, 495, 494, 495, 495, 494, 494, 494, 495, 495, 495, 495, 494, 495, 494, 495, 494, 495, 494, 495, 494, 494, 495, 495, 495, 494, 495, 495, 495, 495, 494, 495, 495, 495, 495, 494, 495, 494, 495, 495, 495, 495, 495, 495, 495, 495, 495, 495, 495, 495, 495, 495, 495, 495, 495, 495, 495, 495, 494, 495, 495, 495, 495, 495, 494, 495, 495, 495, 495, 495, 495, 495, 495, 495, 494, 495, 495, 495, 495, 495, 495, 495, 495, 495, 495, 495, 495, 495, 495, 495, 495, 495, 495, 495, 495, 495, 494, 495, 495, 495, 495, 495, 495, 495, 495, 495, 494, 495, 495, 495, 495, 495, 495, 495, 495, 495, 495, 495, 495, 495, 495, 495, 495, 495, 495, 495, 495, 495, 495, 495, 495, 495, 495, 495, 495, 495, 495, 495, 495, 495, 495, 495, 495, 495, 495, 495, 495, 495, 495, 495, 494, 495, 495, 495, 495, 495, 495, 495, 495, 495, 495, 495, 495, 495, 495, 495, 495, 495, 495, 495, 495, 495, 495, 495, 495, 495, 495, 495, 495, 495, 495, 495, 495, 495, 495, 495, 496, 495, 495, 495, 495, 496, 495, 495, 495, 495, 495, 495, 495, 495, 494, 495, 495, 495, 495, 495, 496, 495, 495, 495, 495, 496, 495, 495, 495, 495, 495, 495, 495, 495, 495, 495, 495, 495, 495, 496, 495, 495, 495, 495, 495, 496, 495, 495, 495, 496, 496, 495, 495, 496, 496, 495, 495, 495, 496, 496, 496, 496, 496, 496, 496, 496, 496, 496, 496, 496, 496, 496, 495, 496, 496, 496, 496, 496, 496, 496, 496, 496, 496, 496, 496, 496, 496, 496, 496, 496, 496, 496, 497, 496, 496, 496, 496, 497, 496, 497, 496, 496, 497, 497, 496, 496, 498, 497, 497, 496, 497, 497, 497, 497, 496]"
39,right,"[497, 497, 497, 497, 497, 497, 497, 497, 497, 497, 497, 497, 497, 497, 497, 497, 497, 497, 497, 497, 497, 497, 497, 497, 497, 497, 497, 497, 497, 497, 498, 497, 497, 497, 497, 497, 498, 497, 497, 497, 497, 497, 497, 497, 497, 497, 498, 497, 497, 498, 497, 498, 497, 497, 497, 498, 497, 497, 497, 497, 498, 497, 497, 497, 497, 498, 497, 498, 497, 498, 497, 497, 497, 497, 497, 497, 498, 497, 497, 498, 497, 497, 497, 498, 497, 497, 497, 497, 498, 497, 497, 496, 497, 497, 497, 497, 496, 497, 497, 497, 497, 496, 498, 497, 497, 496, 497, 497, 497, 497, 496, 497, 497, 497, 496, 497, 496, 497, 497, 496, 497, 497, 497, 497, 496, 497, 496, 497, 497, 496, 496, 497, 496, 497, 496, 496, 497, 496, 497, 497, 496, 497, 496, 497, 496, 497, 497, 497, 496, 497, 496, 496, 498, 496, 497, 498, 497, 497, 496, 495, 495, 497, 496, 496, 496, 496, 495, 495, 496, 496, 496, 498, 495, 495, 497, 498, 494, 497, 496, 497, 496, 498, 498, 495, 496, 496, 496, 495, 496, 496, 497, 496, 496, 496, 495, 495, 497, 495, 496, 498, 496, 496, 496, 495, 496, 494, 495, 496, 498, 497, 497, 499, 497, 493, 497, 499, 498, 496, 499, 495, 499, 498, 497, 494, 495, 499, 496, 496, 499, 500, 497, 496, 498, 498, 496, 497, 496, 496, 496, 497, 498, 495, 498, 497, 500, 493, 496, 496, 496, 498, 498, 495, 495, 496, 500, 495, 495, 495, 498, 499, 494, 494, 497, 498, 498, 495, 497, 496, 496, 494, 497, 494, 495, 497, 496, 496, 495, 497, 497, 497, 500, 495, 499, 496, 494, 496, 494, 496, 494, 497, 491, 497, 494, 493, 499, 494, 496, 499, 496, 496, 494, 496, 496, 494, 495, 494, 495, 498, 494, 497, 496, 492, 495, 493, 493, 496, 493, 495, 498, 495, 494, 493, 494, 498, 494, 497, 495, 494, 494, 493, 495, 495, 498, 495, 495, 492, 496, 492, 494, 493, 496, 497, 496, 493, 492, 496, 495, 496, 493, 496, 492, 495, 493, 497, 493, 497, 493, 495, 498, 496, 497, 497, 496, 497, 495, 493, 495, 495, 495, 495, 494, 496, 496, 495, 494, 492, 493, 495, 495, 495, 492, 494, 495, 492, 497, 495, 494, 495, 496, 492, 492, 494, 493, 493, 495, 494, 493, 494, 495, 496, 494, 495, 494, 495, 494, 496, 496, 491, 499, 492, 495, 498, 499, 497, 493, 493, 499, 496, 499, 493, 500, 493, 495, 494, 493, 497, 496, 493, 496, 496, 491, 495, 495, 495, 494, 495, 494, 494, 493, 494, 494, 494, 496, 493, 495, 495, 492, 494, 496, 495, 495, 493, 494, 494, 496, 496, 496, 495, 495, 496, 493, 495, 496, 494, 497, 494, 494, 494, 494, 495, 495, 495, 494, 494, 494, 494, 496, 494, 497, 497, 497, 496, 495, 493, 496, 493, 494, 496, 496, 494, 492, 495, 493, 497, 493, 494, 495, 494, 498, 493, 493, 494, 495, 495, 494, 495, 493, 494, 495, 493, 492, 495, 497, 493, 493, 494, 494, 496, 494, 494, 491, 494, 494, 495, 493, 490, 496, 492, 494, 494, 498, 494, 494, 496, 499, 493, 496, 494, 494, 495, 494, 493, 494, 493, 493, 494, 495, 497, 496, 490, 493, 492, 492, 497, 497, 491, 496, 496, 488, 494, 493, 498, 494, 492, 492, 494, 495, 494, 494, 494, 495, 494, 494, 497, 494, 490, 497]"
40,rest,"[495, 496, 494, 494, 495, 494, 495, 494, 494, 498, 494, 495, 495, 495, 495, 493, 495, 496, 495, 491, 497, 494, 494, 495, 496, 496, 495, 495, 493, 497, 494, 494, 494, 492, 495, 489, 495, 494, 493, 494, 493, 496, 495, 491, 492, 493, 494, 495, 495, 493, 493, 495, 494, 496, 494, 495, 495, 495, 493, 494, 495, 495, 495, 497, 495, 494, 494, 494, 495, 494, 496, 494, 496, 496, 492, 497, 497, 495, 497, 495, 494, 495, 492, 495, 495, 495, 494, 495, 493, 494, 496, 491, 495, 496, 494, 495, 493, 494, 493, 493, 494, 494, 495, 496, 493, 494, 495, 494, 494, 494, 496, 492, 491, 492, 494, 495, 494, 494, 494, 494, 495, 493, 493, 496, 495, 495, 495, 495, 494, 494, 494, 494, 493, 493, 494, 495, 495, 495, 494, 494, 488, 486, 498, 495, 495, 497, 476, 494, 492, 495, 497, 493, 493, 497, 496, 495, 494, 497, 495, 495, 494, 494, 494, 494, 494, 494, 494, 495, 494, 494, 494, 494, 493, 495, 494, 494, 495, 495, 493, 496, 495, 495, 494, 495, 495, 493, 495, 494, 495, 495, 495, 495, 495, 495, 495, 494, 495, 495, 495, 495, 495, 494, 495, 495, 495, 495, 495, 495, 494, 495, 495, 495, 494, 495, 495, 495, 495, 495, 495, 495, 495, 495, 494, 495, 495, 495, 494, 494, 494, 495, 495, 494, 495, 494, 495, 495, 494, 495, 494, 495, 494, 494, 494, 494, 494, 494, 494, 494, 494, 494, 494, 494, 494, 494, 494, 495, 494, 494, 495, 494, 495, 494, 494, 495, 494, 494, 494, 494, 495, 494, 494, 494, 494, 495, 494, 494, 494, 494, 494, 494, 494, 495, 494, 494, 494, 494, 494, 494, 494, 494, 495, 494, 495, 494, 494, 495, 494, 495, 494, 494, 494, 494, 495, 494, 494, 494, 495, 495, 495, 495, 494, 495, 495, 495, 494, 495, 495, 495, 494, 495, 494, 494, 495, 494, 494, 495, 494, 495, 495, 494, 494, 495, 494, 495, 495, 495, 495, 494, 495, 494, 495, 495, 494, 495, 494, 495, 495, 495, 494, 494, 495, 494, 495, 494, 495, 494, 494, 494, 494, 494, 495, 495, 494, 495, 495, 495, 495, 494, 495, 495, 495, 494, 494, 495, 495, 495, 494, 495, 494, 495, 495, 495, 495, 494, 495, 495, 494, 494, 495, 495, 494, 495, 495, 495, 494, 495, 495, 494, 495, 495, 495, 495, 494, 495, 495, 494, 494, 494, 494, 495, 495, 494, 495, 495, 495, 495, 495, 495, 495, 495, 494, 494, 495, 495, 494, 494, 495, 495, 495, 494, 495, 494, 495, 495, 494, 494, 494, 495, 495, 494, 495, 495, 495, 494, 495, 494, 495, 494, 495, 494, 494, 495, 495, 494, 495, 495, 495, 495, 494, 494, 495, 495, 494, 494, 494, 494, 494, 494, 494, 494, 495, 495, 495, 494, 495, 495, 495, 494, 495, 495, 495, 495, 494, 494, 494, 495, 495, 495, 494, 494, 495, 495, 495, 494, 495, 494, 495, 494, 495, 495, 494, 494, 494, 495, 495, 495, 495, 494, 495, 495, 494, 495, 494, 495, 495, 494, 494, 494, 494, 495, 494, 495, 495, 495, 495, 494, 494, 494, 495, 495, 494, 494, 494, 495, 495, 495, 494, 494, 495, 494, 495, 494, 495, 495, 494, 495, 494, 495, 495, 495, 494, 495, 495, 494, 495, 494, 495, 495, 494, 495, 494, 494, 495, 495, 494, 495, 494, 495, 494, 494, 495, 495, 495, 495, 495, 494]"
41,right,"[494, 495, 495, 494, 494, 495, 495, 495, 494, 494, 495, 494, 495, 494, 494, 495, 494, 495, 494, 495, 494, 495, 494, 495, 494, 495, 495, 494, 495, 495, 495, 494, 495, 495, 495, 495, 494, 495, 494, 494, 494, 494, 495, 494, 495, 494, 494, 495, 495, 495, 494, 494, 494, 494, 494, 495, 494, 495, 495, 494, 495, 494, 494, 495, 495, 494, 495, 495, 495, 495, 495, 495, 494, 495, 495, 495, 494, 495, 495, 495, 494, 495, 495, 495, 495, 495, 494, 494, 494, 495, 495, 494, 495, 495, 494, 495, 494, 495, 495, 495, 494, 495, 495, 495, 494, 495, 494, 495, 495, 495, 495, 494, 495, 495, 494, 494, 494, 495, 495, 495, 494, 495, 494, 494, 494, 494, 495, 494, 494, 495, 495, 495, 494, 493, 493, 495, 494, 493, 495, 491, 493, 493, 495, 492, 492, 495, 496, 496, 495, 496, 495, 494, 496, 497, 496, 494, 497, 495, 494, 496, 495, 495, 498, 494, 496, 495, 494, 495, 494, 497, 497, 495, 496, 495, 494, 495, 496, 496, 494, 495, 496, 494, 497, 496, 495, 496, 494, 493, 496, 498, 495, 497, 494, 495, 495, 492, 497, 497, 495, 496, 496, 495, 496, 497, 495, 496, 494, 500, 498, 496, 496, 494, 493, 499, 497, 495, 497, 496, 494, 498, 496, 494, 498, 495, 495, 495, 496, 496, 495, 492, 497, 497, 499, 498, 494, 500, 501, 493, 500, 496, 499, 494, 498, 491, 497, 498, 495, 501, 494, 500, 499, 495, 496, 500, 487, 494, 495, 492, 494, 493, 495, 496, 494, 497, 497, 493, 496, 494, 492, 495, 496, 496, 500, 496, 494, 491, 493, 494, 495, 495, 500, 491, 494, 493, 494, 492, 495, 493, 495, 497, 494, 492, 495, 494, 493, 490, 499, 495, 497, 492, 496, 496, 491, 494, 496, 489, 495, 497, 494, 496, 495, 493, 496, 492, 497, 496, 496, 495, 492, 496, 494, 496, 497, 487, 497, 497, 494, 494, 495, 494, 494, 492, 495, 496, 495, 488, 494, 492, 498, 488, 495, 495, 498, 492, 492, 494, 499, 493, 496, 495, 492, 493, 497, 498, 492, 495, 494, 493, 496, 493, 496, 494, 496, 494, 495, 495, 494, 495, 495, 494, 496, 495, 494, 494, 493, 495, 493, 496, 494, 494, 496, 494, 495, 493, 502, 494, 496, 493, 494, 495, 494, 499, 497, 492, 494, 494, 495, 496, 494, 494, 494, 494, 494, 495, 496, 494, 495, 494, 496, 497, 494, 496, 497, 493, 495, 494, 498, 491, 498, 495, 499, 498, 493, 495, 497, 493, 495, 495, 493, 496, 497, 494, 495, 498, 494, 493, 496, 494, 494, 496, 494, 499, 491, 496, 496, 493, 494, 494, 493, 496, 495, 495, 494, 496, 496, 497, 494, 494, 497, 497, 494, 496, 494, 493, 497, 494, 496, 495, 495, 493, 496, 496, 496, 494, 494, 495, 495, 493, 495, 491, 496, 494, 495, 497, 492, 495, 497, 493, 495, 494, 495, 496, 493, 498, 496, 495, 496, 494, 495, 494, 494, 495, 495, 497, 496, 495, 493, 496, 495, 496, 494, 493, 495, 496, 496, 494, 495, 497, 493, 495, 495, 494, 496, 496, 495, 494, 498, 492, 496, 493, 496, 495, 499, 494, 496, 496, 497, 497, 495, 496, 495, 499, 492, 495, 495, 493, 496, 493, 496, 496, 494, 492, 498, 494, 499, 493, 494, 499, 493, 498, 500, 495, 497, 496, 495, 498, 493, 494, 495, 492, 495, 495, 494, 495, 497, 495, 497]"
